economy,Country Name,YR2020,YR2019,YR2018,YR2017,YR2016,YR2015,YR2014,YR2013,YR2012,YR2011,YR2010,YR2009,YR2008,YR2007,YR2006,YR2005,YR2004,YR2003,YR2002,YR2001,YR2000,YR1999,YR1998,YR1997,YR1996,YR1995,YR1994,YR1993,YR1992,YR1991,YR1990,YR1989,YR1988,YR1987,YR1986,YR1985,YR1984,YR1983,YR1982,YR1981,YR1980,YR1979,YR1978,YR1977,YR1976,YR1975,YR1974,YR1973,YR1972,YR1971,YR1970,YR1969,YR1968,YR1967,YR1966,YR1965,YR1964,YR1963,YR1962,YR1961,YR1960
ABW,Aruba,,,,,,,,,,,,,,,,,,,,,,,,,,,,,,,,,,,,,,,,,,,,,,,,,,,,,,,,,,,,,
AFE,Africa Eastern and Southern,,,,,,,,,,,,,,,,,,,,,,,,,,,,,,,,,,,,,,,,,,,,,,,,,,,,,,,,,,,,,
AFG,Afghanistan,,,,,,,,,,,,,,,,,,,,,,,,,,,,,,,,,,,,,,,,,,,,,,,,,,,,,,,,,,,,,
AFW,Africa Western and Central,,,,,,,,,,,,,,,,,,,,,,,,,,,,,,,,,,,,,,,,,,,,,,,,,,,,,,,,,,,,,
AGO,Angola,,-124799000.0,-1166705000.0,-5450472000.0,-4256199000.0,-1697390000.0,4170871000.0,5688035000.0,6275359000.0,3775966000.0,3055659000.0,2382651000.0,2712390000.0,1321080000.0,-1556122000.0,1573210000.0,862797000.0,485123000.0,-83589000.0,864000.0,-251024000.0,38973000.0,-141018000.0,386502000.0,101964000.0,116613000.0,222656000.0,610027000.0,454620000.0,18208000.0,566487000.0,337784000.0,,,,,,,,,,,,,,,,,,,,,,,,,,,,,
ALB,Albania,,-19043000.0,-130129000.0,83069000.0,-55566000.0,179946000.0,-167506000.0,276544000.0,123682000.0,177866000.0,61152000.0,426389000.0,532288000.0,92235000.0,,,,,,,,,,,,-411000.0,,,,,,,,,,,,,,,,,,,,,,,,,,,,,,,,,,,
AND,Andorra,,,,,,,,,,,,,,,,,,,,,,,,,,,,,,,,,,,,,,,,,,,,,,,,,,,,,,,,,,,,,
ARB,Arab World,,,,,,,,,,,,,,,,,,,,,,,,,,,,,,,,,,,,,,,,,,,,,,,,,,,,,,,,,,,,,
ARE,United Arab Emirates,,,,,,,,,,,,,,,,,,,,,,,,,,,,,,,,,,,,,,,,,,,,,,,,,,,,,,,,,,,,,
ARG,Argentina,,1345017000.0,5097822000.0,6119714000.0,4523086000.0,1873402000.0,1045586000.0,479012000.0,-492270000.0,-151152000.0,-2632617000.0,-4276454000.0,2730014000.0,-135040000.0,812831000.0,-124295000.0,-822918000.0,102377000.0,-88903000.0,-3419432000.0,-344658000.0,-44324000.0,2656666000.0,1955396000.0,407782000.0,754588000.0,1760080000.0,31434000.0,-204029000.0,-378251000.0,-1194855000.0,159852000.0,663620000.0,1465073000.0,623084000.0,2501215000.0,14436000.0,1168004000.0,2351032000.0,6349866000.0,2839236000.0,4399808000.0,703565000.0,444920000.0,898917000.0,-41974000.0,140913000.0,311441000.0,191899000.0,133133000.0,-16253000.0,,,,,,,,,,
ARM,Armenia,,490478000.0,187761000.0,-193476000.0,158924000.0,-43257000.0,768241000.0,821669000.0,539285000.0,573425000.0,,,,,,,,,-6636000.0,,,,5000000.0,,,,,,,,,,,,,,,,,,,,,,,,,,,,,,,,,,,,,,
ASM,American Samoa,,,,,,,,,,,,,,,,,,,,,,,,,,,,,,,,,,,,,,,,,,,,,,,,,,,,,,,,,,,,,
ATG,Antigua and Barbuda,,,,,,,,,,,,,,,,,,,,,,,,,,,,,,,,,,,,,,,,,,,,,,,,,,,,,,,,,,,,,
AUS,Australia,,,,,,,,,,,,,,,,,,,,,,,,,,,,,,,,,,,,,,,,,,,,,,,,,,,,,,,,,,,,,
AUT,Austria,,,,,,,,,,,,,,,,,,,,,,,,,,,,,,,,,,,,,,,,,,,,,,,,,,,,,,,,,,,,,
AZE,Azerbaijan,,-809947000.0,901342000.0,-285978000.0,-381520000.0,1575480000.0,-738294000.0,-439302000.0,274388000.0,738659000.0,2012186000.0,257541000.0,331554000.0,205483000.0,47886000.0,246560000.0,121765000.0,-20819000.0,-56834000.0,-29498000.0,83712000.0,95831000.0,,,,,,,,,,,,,,,,,,,,,,,,,,,,,,,,,,,,,,,
BDI,Burundi,,,,,,,,,,,,,,,,,,,,,,,,,,,,,,-2575000.0,-5975000.0,-5554000.0,-925000.0,-7773000.0,-5736000.0,-2902000.0,10981000.0,13153000.0,687000.0,-2364000.0,-2778000.0,1210000.0,2906000.0,7000.0,35000.0,5517000.0,,-271000.0,-381000.0,-59000.0,11000.0,,,,,,,,,,
BEL,Belgium,,,,,,,,,,,,,,,,,,,,,,,,,,,,,,,,,,,,,,,,,,,,,,,,,,,,,,,,,,,,,
BEN,Benin,,-291392000.0,800810000.0,38734000.0,,,,,,,,,,,,,,,,0.0,-2081000.0,,,,,,,,,,,,,-1452000.0,-17929000.0,-17976000.0,-8123000.0,41991000.0,181061000.0,,,,,,,-183000.0,3612000.0,552000.0,,-1206000.0,,,,,,,,,,,
BFA,Burkina Faso,,-2380000.0,-354000.0,-2352000.0,-2210000.0,-1933000.0,-1142000.0,-3053000.0,-1115000.0,,16164000.0,5874000.0,,,,,,,,,,,,,,,,,,-600000.0,,2607000.0,-1845000.0,-3831000.0,-7294000.0,-9065000.0,348000.0,14543000.0,20641000.0,776000.0,3899000.0,13402000.0,-412000.0,,,,,,,,,,,,,,,,,,
BGD,Bangladesh,,-321473000.0,1838613000.0,299338000.0,-256636000.0,233722000.0,939718000.0,422864000.0,328188000.0,368485000.0,281522000.0,351078000.0,256586000.0,99633000.0,-23558000.0,-15835000.0,-13992000.0,-17068000.0,,48455000.0,45742000.0,,-21026000.0,-22420000.0,-29783000.0,-19886000.0,-25461000.0,-9961000.0,-18617000.0,34298000.0,55741000.0,-29981000.0,-22556000.0,1960000.0,54416000.0,-5183000.0,27561000.0,45756000.0,21408000.0,,,9008000.0,12088000.0,-812000.0,-1402000.0,-3010000.0,1321000.0,13311000.0,,,,,,,,,,,,,
BGR,Bulgaria,,289397000.0,-470598000.0,-488400000.0,-1359174000.0,-3514154000.0,-602671000.0,1208824000.0,945883000.0,7305388000.0,-1918626000.0,4878284000.0,14075046000.0,8991713000.0,3883983000.0,2674535000.0,1621680000.0,312968000.0,312317000.0,153966000.0,107207000.0,235131000.0,86928000.0,-23030000.0,-95477000.0,-92599000.0,-193631000.0,-33895000.0,79269000.0,30107000.0,-110879000.0,567860000.0,441565000.0,779401000.0,1296556000.0,887173000.0,934437000.0,482826000.0,568520000.0,393545000.0,,,,,,,,,,,,,,,,,,,,,
BHR,Bahrain,,,,,,,,,,,,,,,,,,,,,,,,,,,,,,,,,,,,,,,,,,,,,,,,,,,,,,,,,,,,,
BHS,Bahamas,,,,,,,,,,,,,,,,,,,,,,,,,,,,,,,,,,,,,,,,,,,,,,,,,,,,,,,,,,,,,
BIH,Bosnia and Herzegovina,,1135181000.0,291420000.0,981132000.0,487443000.0,703003000.0,-720481000.0,172961000.0,-481706000.0,-264172000.0,-100537000.0,36260000.0,1753184000.0,2502620000.0,1146480000.0,1094380000.0,,,,,,,,,,,,,,,,,,,,,,,,,,,,,,,,,,,,,,,,,,,,,
BLR,Belarus,,1036420000.0,-914551000.0,-432020000.0,-3313185000.0,-283021000.0,-482856000.0,478469000.0,1466456000.0,-378809000.0,74972000.0,-452601000.0,984741000.0,1387951000.0,267054000.0,59692000.0,-10246000.0,1141000.0,159809000.0,203077000.0,22296000.0,-23622000.0,-6354000.0,-28036000.0,340000.0,103389000.0,113170000.0,,,,,,,,,,,,,,,,,,,,,,,,,,,,,,,,,,
BLZ,Belize,,325000.0,-14403000.0,21627000.0,,-10555000.0,-7807000.0,-11367000.0,-49116000.0,-24795000.0,-22912000.0,-16701000.0,31584000.0,492516000.0,-15626000.0,-70129000.0,-112005000.0,42329000.0,-84381000.0,84610000.0,82606000.0,59271000.0,6223000.0,8437000.0,6327000.0,-2228000.0,-360000.0,4538000.0,4339000.0,4983000.0,2215000.0,-547000.0,6283000.0,-1049000.0,-5022000.0,-2479000.0,1902000.0,3041000.0,5254000.0,4015000.0,,,,,,,,,,,,,,,,,,,,,
BMU,Bermuda,,,,,,,,,,,,,,,,,,,,,,,,,,,,,,,,,,,,,,,,,,,,,,,,,,,,,,,,,,,,,
BOL,Bolivia,,13046000.0,-106099000.0,-87116000.0,158514000.0,-47785000.0,253501000.0,-16738000.0,-118528000.0,-120030000.0,-358890000.0,-156223000.0,343227000.0,229789000.0,96397000.0,317989000.0,2400000.0,128260000.0,-75497000.0,-22878000.0,195898000.0,310000.0,108241000.0,213036000.0,45298000.0,40930000.0,5695000.0,11344000.0,-7942000.0,-27571000.0,-23873000.0,,-63811000.0,19072000.0,-3593000.0,-35347000.0,-39671000.0,-28361000.0,61628000.0,90193000.0,156779000.0,109569000.0,167195000.0,211227000.0,144392000.0,79316000.0,35117000.0,-7678000.0,26414000.0,10648000.0,2974000.0,,,,,,,,,,
BRA,Brazil,,-3689440000.0,29618885000.0,14565077000.0,20259684000.0,28124920000.0,67590159000.0,45660825000.0,41406386000.0,48347761000.0,15320878000.0,6044986000.0,24682678000.0,19109489000.0,13582768000.0,-1940940000.0,-471109000.0,-7341189000.0,-9769582000.0,-5623564000.0,2262024000.0,-13994526000.0,19913386000.0,15021738000.0,9751649000.0,8282394000.0,2866215000.0,4693539000.0,2965370000.0,533027000.0,-539113000.0,-3326845000.0,3127559000.0,-59496000.0,4168000.0,388580000.0,4884807000.0,2896152000.0,7744225000.0,7568736000.0,3398491000.0,4601533000.0,8010937000.0,4940453000.0,5031308000.0,4216869000.0,5511440000.0,2275668000.0,3174186000.0,1233192000.0,1143487000.0,,,,,,,,,,
BRB,Barbados,,,,,,,,,,,,,,,,,,,,,,,,,,,,,,,,,,,,,,,,,,,,,,,,,,,,,,,,,,,,,
BRN,Brunei Darussalam,,,,,,,,,,,,,,,,,,,,,,,,,,,,,,,,,,,,,,,,,,,,,,,,,,,,,,,,,,,,,
BTN,Bhutan,,-8566000.0,-5170000.0,-9120000.0,-1179000.0,51527000.0,4781000.0,7396000.0,6157000.0,18960000.0,16050000.0,4913000.0,,,,,,,,,,,,,,,,,,,,,,,,,,,,,,,,,,,,,,,,,,,,,,,,,
BWA,Botswana,,,,,,,,,,,,,-5101000.0,-2297000.0,-2313000.0,-2291000.0,-834000.0,-2261000.0,-2247000.0,-2235000.0,-3089000.0,9820000.0,-4466000.0,-4966000.0,-8592000.0,-6249000.0,-1956000.0,29330000.0,-2679000.0,-2615000.0,-18452000.0,-3230000.0,-335000.0,4427000.0,5988000.0,-12174000.0,6374000.0,-2238000.0,32234000.0,,,,,,,,,,,,,,,,,,,,,,
CAF,Central African Republic,,,,,,,,,,,,,,,,,,,,,,,,,,,,,,,,,,,,,,,,,,,,,,,,,,,,,,,,,,,,,
CAN,Canada,,,,,,,,,,,,,,,,,,,,,,,,,,,,,,,,,,,,,,,,,,,,,,,,,,,,,,,,,,,,,
CEB,Central Europe and the Baltics,,,,,,,,,,,,,,,,,,,,,,,,,,,,,,,,,,,,,,,,,,,,,,,,,,,,,,,,,,,,,
CHE,Switzerland,,,,,,,,,,,,,,,,,,,,,,,,,,,,,,,,,,,,,,,,,,,,,,,,,,,,,,,,,,,,,
CHI,Channel Islands,,,,,,,,,,,,,,,,,,,,,,,,,,,,,,,,,,,,,,,,,,,,,,,,,,,,,,,,,,,,,
CHL,Chile,,,,,,,,,,,,,,,,,,,,,,,,,,,,,,,,,,,,,,,,,,,,,,,,,,,,,,,,,,,,,
CHN,China,,53016816000.0,-5377239000.0,3804870000.0,12234386000.0,19772777000.0,45056776000.0,18894747000.0,15943029000.0,28416365000.0,24119960000.0,-10477226000.0,14238099000.0,13851610000.0,5794863000.0,2625096000.0,4148865000.0,-2932125000.0,-3395153000.0,-5651338000.0,-2138296000.0,-1725694000.0,-3935672000.0,4804615000.0,5263514000.0,4696140000.0,3814393000.0,5979429000.0,8952102000.0,2468905000.0,4667616000.0,3384451000.0,4654316000.0,4397640000.0,2356755000.0,1892092000.0,161298000.0,359428000.0,-144089000.0,106519000.0,,,,,,,,,,,,,,,,,,,,,
CIV,Cote d'Ivoire,,1551377000.0,27315000.0,-173480000.0,,-331520000.0,-400660000.0,-345599000.0,579292000.0,207484000.0,195665000.0,155000000.0,79000000.0,-166696000.0,-118675000.0,-109352000.0,-133348000.0,-115000000.0,-114409000.0,-110000000.0,-117763000.0,-242822000.0,-240978000.0,,108713000.0,14340000.0,-39017000.0,-51610000.0,-10436000.0,-3994000.0,9920000.0,129200000.0,44562000.0,-213948000.0,-181020000.0,-200000.0,77987000.0,123034000.0,591041000.0,664294000.0,855793000.0,473516000.0,669093000.0,537054000.0,196045000.0,231249000.0,78703000.0,151929000.0,21132000.0,35064000.0,15260000.0,,,,,,,,,,
CMR,Cameroon,,626162000.0,-41068000.0,-82383000.0,12390000.0,89030000.0,44412000.0,-9079000.0,-35919000.0,-107273000.0,-31987000.0,-12433000.0,-105383000.0,-120458000.0,-120632000.0,-43754000.0,24727000.0,-60750000.0,,-90947000.0,-51911000.0,-52464000.0,-43974000.0,-25172000.0,-23286000.0,-64718000.0,-59430000.0,5858000.0,71328000.0,8225000.0,-14032000.0,241385000.0,225798000.0,-16987000.0,84759000.0,-240678000.0,131785000.0,264606000.0,56160000.0,137294000.0,278822000.0,244788000.0,117438000.0,144373000.0,102575000.0,60146000.0,17449000.0,,,,,,,,,,,,,,
COD,"Congo, Dem. Rep.",,72394000.0,15688000.0,-509000.0,-9130000.0,1818000.0,,,,,15779000.0,-20968000.0,-6979000.0,-4521000.0,-6648000.0,-1986000.0,-4207000.0,28617000.0,,,0.0,0.0,,,,,,,,-13047000.0,-11831000.0,24777000.0,-5233000.0,-18364000.0,-29556000.0,-34728000.0,-19330000.0,-15241000.0,17161000.0,63809000.0,138051000.0,28378000.0,235105000.0,324658000.0,311729000.0,202234000.0,275747000.0,297408000.0,173617000.0,156211000.0,,,,,,,,,,,
COG,"Congo, Rep.",,-70879000.0,-70262000.0,-71601000.0,-70276000.0,-78860000.0,-70854000.0,84485000.0,117463000.0,87347000.0,-34918000.0,-58890000.0,-24882000.0,-23072000.0,0.0,0.0,-256000.0,1322000.0,-98000.0,-92000.0,0.0,0.0,-1979000.0,,,-52791000.0,-156140000.0,462768000.0,29766000.0,-187567000.0,-90568000.0,-47640000.0,168944000.0,-49385000.0,11913000.0,97232000.0,166970000.0,158730000.0,401045000.0,146838000.0,399899000.0,41671000.0,79868000.0,425000.0,11634000.0,33709000.0,38988000.0,16762000.0,,,,,,,,,,,,,
COL,Colombia,,1825571000.0,4831257000.0,-2961042000.0,4369434000.0,3439240000.0,1572842000.0,6547126000.0,-772438000.0,4711218000.0,4280047000.0,-1018263000.0,486049000.0,2784178000.0,-876134000.0,-711452000.0,-1815321000.0,-980483000.0,-601298000.0,-846625000.0,-432686000.0,1273667000.0,-1196573000.0,3099446000.0,2348387000.0,1180142000.0,1743381000.0,517099000.0,-108391000.0,-372295000.0,-165977000.0,-163122000.0,308677000.0,-330874000.0,987785000.0,432304000.0,755067000.0,537651000.0,864183000.0,1131705000.0,534484000.0,553914000.0,-46384000.0,122896000.0,89121000.0,219663000.0,8728000.0,43540000.0,152831000.0,88378000.0,32830000.0,,,,,,,,,,
COM,Comoros,,,,,,,,,,,,,,,,,,,,,,,,,,,,,,,,,,,-145000.0,-112000.0,-115000.0,-139000.0,621000.0,,,,,,,,,,,,,,,,,,,,,,
CPV,Cabo Verde,,2460000.0,0.0,12516000.0,16399000.0,28577000.0,114188000.0,121100000.0,114183000.0,94977000.0,77505000.0,-3642000.0,-4343000.0,-4205000.0,-6408000.0,3971000.0,-1915000.0,-832000.0,-139000.0,8606000.0,,,,,,,,,,,,,,,,,,,,,,,,,,,,,,,,,,,,,,,,,
CRI,Costa Rica,,72710000.0,1110592000.0,-295820000.0,750472000.0,1800397000.0,1176661000.0,837797000.0,1140089000.0,621603000.0,249211000.0,611542000.0,10719000.0,193289000.0,136022000.0,688411000.0,348735000.0,64847000.0,-7696000.0,-23437000.0,-23817000.0,-27703000.0,49695000.0,-550000.0,-16454000.0,-19824000.0,-60757000.0,-57347000.0,17238000.0,-22302000.0,-98640000.0,-9959000.0,3872000.0,-3993000.0,1740000.0,44482000.0,-18293000.0,96407000.0,17009000.0,51487000.0,98076000.0,98048000.0,77664000.0,166927000.0,88240000.0,97183000.0,60221000.0,46319000.0,28813000.0,18997000.0,7567000.0,,,,,,,,,,
CSS,Caribbean small states,,,,,,,,,,,,,,,,,,,,,,,,,,,,,,,,,,,,,,,,,,,,,,,,,,,,,,,,,,,,,
CUB,Cuba,,,,,,,,,,,,,,,,,,,,,,,,,,,,,,,,,,,,,,,,,,,,,,,,,,,,,,,,,,,,,
CUW,Curacao,,,,,,,,,,,,,,,,,,,,,,,,,,,,,,,,,,,,,,,,,,,,,,,,,,,,,,,,,,,,,
CYM,Cayman Islands,,,,,,,,,,,,,,,,,,,,,,,,,,,,,,,,,,,,,,,,,,,,,,,,,,,,,,,,,,,,,
CYP,Cyprus,,,,,,,,,,,,,,,,,,,,,,,,,,,,,,,,,,,,,,,,,,,,,,,,,,,,,,,,,,,,,
CZE,Czech Republic,,,,,,,,,,,,,,,,,,,,,,,,,,,,,,,,,,,,,,,,,,,,,,,,,,,,,,,,,,,,,
DEU,Germany,,,,,,,,,,,,,,,,,,,,,,,,,,,,,,,,,,,,,,,,,,,,,,,,,,,,,,,,,,,,,
DJI,Djibouti,,-273000.0,-137000.0,-198000.0,-674000.0,-2667000.0,-2004000.0,-3661000.0,-3541000.0,-2941000.0,-2389000.0,,,,,,,,,,,,,,,,,,,,-590000.0,-739000.0,-1680000.0,-2279000.0,-2038000.0,125000.0,15000.0,-410000.0,3532000.0,,4977000.0,,,,,,,,,,,,,,,,,,,,
DMA,Dominica,,-2662000.0,-2042000.0,-2179000.0,-2006000.0,-2006000.0,-2007000.0,-1992000.0,-229000.0,804000.0,-61000.0,249000.0,1724000.0,299000.0,37000.0,37000.0,,-274000.0,12959000.0,,,,,,,,,,,-72000.0,-74000.0,-63000.0,-68000.0,-68000.0,292000.0,,,,,,,,,,,,,,,,,,,,,,,,,,
DNK,Denmark,,,,,,,,,,,,,,,,,,,,,,,,,,,,,,,,,,,,,,,,,,,,,,,,,,,,,,,,,,,,,
DOM,Dominican Republic,,-878397000.0,205067000.0,-182002000.0,-376690000.0,-134963000.0,-21375000.0,-275109000.0,144039000.0,-68658000.0,-201509000.0,-329827000.0,-97916000.0,-90796000.0,-298155000.0,68732000.0,195579000.0,761250000.0,625519000.0,89300000.0,119717000.0,41609000.0,9515000.0,-1945000.0,-23926000.0,-30620000.0,-115580000.0,-27908000.0,-19190000.0,-15432000.0,,-9754000.0,40088000.0,1782000.0,-8764000.0,21020000.0,-3916000.0,-23481000.0,-12358000.0,-32459000.0,56836000.0,61125000.0,71107000.0,83525000.0,60921000.0,61115000.0,98690000.0,28180000.0,31030000.0,17080000.0,5655000.0,,,,,,,,,,
DZA,Algeria,,2692000.0,-7921000.0,-67542000.0,-149149000.0,-417725000.0,-50320000.0,-312382000.0,-245343000.0,-271677000.0,-387210000.0,-629546000.0,-207719000.0,-462711000.0,-1188599000.0,-634099000.0,-408716000.0,-56383000.0,-358634000.0,-1043741000.0,-1247445000.0,-1514561000.0,-1328389000.0,-540781000.0,1634000.0,787817000.0,1012081000.0,207903000.0,363874000.0,-1146022000.0,-411817000.0,142599000.0,1444800000.0,1045930000.0,1004925000.0,113456000.0,628810000.0,-10397000.0,-542354000.0,48463000.0,532413000.0,2025466000.0,3487005000.0,1929273000.0,1527161000.0,1131087000.0,213516000.0,1171111000.0,204144000.0,172163000.0,241651000.0,,,,,,,,,,
EAP,East Asia & Pacific (excluding high income),,60317898000.0,26532316000.0,19138129000.0,20248104000.0,36175555000.0,72806626000.0,46242228000.0,50612837000.0,60666847000.0,39812557000.0,-3026847000.0,16068221000.0,13744507000.0,10352501000.0,770582000.0,1264801000.0,-7660581000.0,-11246806000.0,-13359021000.0,-10062593000.0,-12270116000.0,-7443465000.0,7603941000.0,14458013000.0,8333732000.0,4756473000.0,2741615000.0,12528037000.0,6929804000.0,7800494000.0,5124701000.0,4842036000.0,4320168000.0,2751774000.0,3876215000.0,2481190000.0,4311913000.0,3102224000.0,3204435000.0,4648864000.0,3280344000.0,1401641000.0,1446400000.0,1958040000.0,2175893000.0,1514516000.0,655285000.0,809831000.0,439379000.0,470320000.0,,,,,,,,,,
EAR,Early-demographic dividend,,,,,,,,,,,,,,,,,,,,,,,,,,,,,,,,,,,,,,,,,,,,,,,,,,,,,,,,,,,,,
EAS,East Asia & Pacific,,,,,,,,,,,,,,,,,,,,,,,,,,,,,,,,,,,,,,,,,,,,,,,,,,,,,,,,,,,,,
ECA,Europe & Central Asia (excluding high income),,-35494425000.0,-53306992000.0,15919809000.0,42005979000.0,-68146435000.0,-15851734000.0,75778424000.0,88405223000.0,77740537000.0,32741118000.0,-12640173000.0,119256759000.0,130183157000.0,91617070000.0,60446306000.0,43219753000.0,30665271000.0,8938381000.0,202291000.0,3739053000.0,5790128000.0,6613855000.0,3298754000.0,2565368000.0,1203198000.0,-452821000.0,5980789000.0,10766463000.0,-346537000.0,4707415000.0,3814437000.0,4645455000.0,5088717000.0,1721960000.0,2381316000.0,7709641000.0,2797556000.0,1207728000.0,1337560000.0,5637163000.0,4579476000.0,1959228000.0,2485413000.0,1145613000.0,1875317000.0,409312000.0,653419000.0,639744000.0,462665000.0,206082000.0,,,,,,,,,,
ECS,Europe & Central Asia,,,,,,,,,,,,,,,,,,,,,,,,,,,,,,,,,,,,,,,,,,,,,,,,,,,,,,,,,,,,,
ECU,Ecuador,,-895854000.0,1051837000.0,-771705000.0,776010000.0,1182401000.0,2954924000.0,29666000.0,233747000.0,206669000.0,7422000.0,95398000.0,450391000.0,333165000.0,422782000.0,-66117000.0,647630000.0,631783000.0,888658000.0,214782000.0,-216269000.0,-969000.0,-221864000.0,364379000.0,126710000.0,59427000.0,-55124000.0,87436000.0,-203587000.0,-78312000.0,57246000.0,241738000.0,-38764000.0,22534000.0,237210000.0,203099000.0,422672000.0,71448000.0,55425000.0,884659000.0,538364000.0,621028000.0,486993000.0,526734000.0,89165000.0,196050000.0,66630000.0,17354000.0,71595000.0,10627000.0,12230000.0,,,,,,,,,,
EGY,"Egypt, Arab Rep.",,936641000.0,5510773000.0,1054854000.0,799688000.0,902208000.0,-44261000.0,-150424000.0,37758000.0,-48296000.0,141039000.0,-61152000.0,-360955000.0,-94931000.0,-232142000.0,490434000.0,136269000.0,-628769000.0,-16992000.0,169054000.0,114667000.0,-234816000.0,35410000.0,-37337000.0,-421012000.0,-311372000.0,-283951000.0,-411335000.0,-546843000.0,-212941000.0,-64422000.0,297372000.0,677132000.0,574242000.0,775007000.0,563176000.0,586456000.0,1112882000.0,1335502000.0,625699000.0,558867000.0,444499000.0,239120000.0,329421000.0,129424000.0,,105657000.0,,-18891000.0,,,,,,,,,,,,
EMU,Euro area,,,,,,,,,,,,,,,,,,,,,,,,,,,,,,,,,,,,,,,,,,,,,,,,,,,,,,,,,,,,,
ERI,Eritrea,,,,,,,,,,,,,,,,,,,,,,,,,,,,,,,,,,,,,,,,,,,,,,,,,,,,,,,,,,,,,
ESP,Spain,,,,,,,,,,,,,,,,,,,,,,,,,,,,,,,,,,,,,,,,,,,,,,,,,,,,,,,,,,,,,
EST,Estonia,,,,,,,,,,,,,,,,,,,,,,,,,,,,,,,,,,,,,,,,,,,,,,,,,,,,,,,,,,,,,
ETH,Ethiopia,,-313436000.0,456470000.0,364398000.0,48881000.0,1348864000.0,402304000.0,217980000.0,540145000.0,421751000.0,625448000.0,1022678000.0,-32953000.0,-44255000.0,-44933000.0,116212000.0,70502000.0,128578000.0,-4070000.0,-9983000.0,-8051000.0,-12066000.0,2106000.0,22647000.0,-209577000.0,-47917000.0,-32892000.0,-26825000.0,79790000.0,212417000.0,-55645000.0,-68114000.0,63457000.0,73222000.0,27851000.0,59944000.0,117310000.0,37694000.0,98160000.0,63300000.0,26302000.0,6050000.0,5003000.0,-2275000.0,-3024000.0,-2747000.0,1360000.0,-2103000.0,-6205000.0,-4766000.0,-6891000.0,,,,,,,,,,
EUU,European Union,,,,,,,,,,,,,,,,,,,,,,,,,,,,,,,,,,,,,,,,,,,,,,,,,,,,,,,,,,,,,
FCS,Fragile and conflict affected situations,,,,,,,,,,,,,,,,,,,,,,,,,,,,,,,,,,,,,,,,,,,,,,,,,,,,,,,,,,,,,
FIN,Finland,,,,,,,,,,,,,,,,,,,,,,,,,,,,,,,,,,,,,,,,,,,,,,,,,,,,,,,,,,,,,
FJI,Fiji,,,,,,,,,,,,,,,,,,,,,,,-33000.0,-185000.0,-220000.0,-957000.0,-1617000.0,-2809000.0,-10125000.0,-9403000.0,-12453000.0,-14782000.0,376000.0,-16107000.0,-12192000.0,10908000.0,8794000.0,8099000.0,,,29525000.0,8866000.0,,,,,,,,,,,,,,,,,,,
FRA,France,,,,,,,,,,,,,,,,,,,,,,,,,,,,,,,,,,,,,,,,,,,,,,,,,,,,,,,,,,,,,
FRO,Faroe Islands,,,,,,,,,,,,,,,,,,,,,,,,,,,,,,,,,,,,,,,,,,,,,,,,,,,,,,,,,,,,,
FSM,"Micronesia, Fed. Sts.",,,,,,,,,,,,,,,,,,,,,,,,,,,,,,,,,,,,,,,,,,,,,,,,,,,,,,,,,,,,,
GAB,Gabon,,-193318000.0,-227355000.0,-109698000.0,196016000.0,-87029000.0,41032000.0,262577000.0,72077000.0,236674000.0,182676000.0,78608000.0,5433000.0,55593000.0,38513000.0,-14762000.0,-54421000.0,-64796000.0,-11938000.0,-27323000.0,-6539000.0,8890000.0,-6814000.0,-4698000.0,-50929000.0,-74811000.0,-30898000.0,-1730000.0,-16706000.0,-31645000.0,29005000.0,25962000.0,118245000.0,83338000.0,275468000.0,95503000.0,30752000.0,-64470000.0,-100631000.0,-187201000.0,-124125000.0,117360000.0,-85847000.0,109346000.0,299937000.0,254320000.0,100871000.0,130834000.0,70806000.0,27866000.0,5819000.0,,,,,,,,,,
GBR,United Kingdom,,,,,,,,,,,,,,,,,,,,,,,,,,,,,,,,,,,,,,,,,,,,,,,,,,,,,,,,,,,,,
GEO,Georgia,,-353276000.0,291350000.0,167221000.0,488498000.0,923514000.0,-102593000.0,369222000.0,-422855000.0,568665000.0,-63907000.0,316398000.0,-215089000.0,,,,,,,,,,,,,,-926000.0,,21450000.0,,,,,,,,,,,,,,,,,,,,,,,,,,,,,,,,
GHA,Ghana,,-266637000.0,-292080000.0,-75816000.0,723376000.0,488513000.0,596074000.0,930841000.0,331229000.0,392352000.0,220082000.0,189293000.0,82715000.0,55190000.0,-1327000.0,11286000.0,25753000.0,-30770000.0,-3204000.0,194348000.0,2210000.0,-51103000.0,53844000.0,84425000.0,29093000.0,93198000.0,58063000.0,24842000.0,45077000.0,34720000.0,-19776000.0,-60901000.0,-16980000.0,5239000.0,77359000.0,,,,,,-41747000.0,,16141000.0,22065000.0,-8132000.0,-16607000.0,15867000.0,-1354000.0,-2676000.0,-1874000.0,,,,,,,,,,,
GIB,Gibraltar,,,,,,,,,,,,,,,,,,,,,,,,,,,,,,,,,,,,,,,,,,,,,,,,,,,,,,,,,,,,,
GIN,Guinea,,41421000.0,-11813000.0,-11297000.0,-11067000.0,-11096000.0,-13290000.0,-13428000.0,-12744000.0,-13797000.0,-13269000.0,-13928000.0,-14717000.0,-11479000.0,-11301000.0,-11212000.0,181522000.0,,,,-194000.0,-224000.0,-10435000.0,-20148000.0,,,,,,,-18698000.0,-13180000.0,19064000.0,,,,6114000.0,21619000.0,22587000.0,21637000.0,46175000.0,,31357000.0,,,,,,,,,,,,,,,,,,
GMB,"Gambia, The",,-909000.0,-1920000.0,-1835000.0,-1799000.0,-1802000.0,-851000.0,908000.0,5259000.0,-2242000.0,3179000.0,786000.0,1520000.0,,,-283000.0,-282000.0,,,-300000.0,-310000.0,,,,,,-4318000.0,-4295000.0,-4464000.0,-4546000.0,-7484000.0,,-670000.0,-2110000.0,-43000.0,-129000.0,,2183000.0,7092000.0,7470000.0,21328000.0,2354000.0,,,,,,,,,,,,,,,,,,,
GNB,Guinea-Bissau,,,,,,,,,,,,,,,,,,,,,,,,,,,,,,,,,,,,,2947000.0,-403000.0,453000.0,-1511000.0,17755000.0,,4383000.0,,,,,,,,,,,,,,,,,,
GNQ,Equatorial Guinea,,,,,,,,,,,,,,,,,,,,,,,,,,,,,,,,,,,,,,,,,,,,,,,,,,,,,,,,,,,,,
GRC,Greece,,,,,,,,,,,,,,,,,,,,,,,,,,,,,,,,,,,,,,,,,,,,,,,,,,,,,,,,,,,,,
GRD,Grenada,,-395000.0,-1180000.0,-845000.0,,-1069000.0,,,,-2910000.0,-4365000.0,0.0,,,7275000.0,-359000.0,-3990000.0,4568000.0,-3481000.0,-3701000.0,27455000.0,807000.0,372000.0,-630000.0,-876000.0,-1789000.0,-1486000.0,-1284000.0,-412000.0,10953000.0,-171000.0,-752000.0,-892000.0,-658000.0,535000.0,-755000.0,-305000.0,,4959000.0,,,,,,,,,,,,,,,,,,,,,,
GRL,Greenland,,,,,,,,,,,,,,,,,,,,,,,,,,,,,,,,,,,,,,,,,,,,,,,,,,,,,,,,,,,,,
GTM,Guatemala,,2260063000.0,-246214000.0,1262857000.0,147282000.0,455636000.0,1300416000.0,1326486000.0,-708116000.0,-259855000.0,-91412000.0,-631822000.0,-99709000.0,1124207000.0,,,,,,,,-25624000.0,-23592000.0,-33891000.0,-50892000.0,-33956000.0,-42890000.0,25728000.0,3952000.0,-3711000.0,-768000.0,5219000.0,-29115000.0,-56326000.0,-60013000.0,18510000.0,4922000.0,144550000.0,139354000.0,110281000.0,-20091000.0,60580000.0,68715000.0,52880000.0,21243000.0,26658000.0,7763000.0,12536000.0,2084000.0,12814000.0,22557000.0,,,,,,,,,,
GUM,Guam,,,,,,,,,,,,,,,,,,,,,,,,,,,,,,,,,,,,,,,,,,,,,,,,,,,,,,,,,,,,,
GUY,Guyana,,-51443000.0,-51397000.0,-9575000.0,64484000.0,-15000000.0,185000000.0,0.0,,,43000.0,,,,,-613000.0,-774000.0,-1145000.0,-1045000.0,-942000.0,,-1735000.0,-4197000.0,-3788000.0,1572000.0,-10383000.0,-3732000.0,-5313000.0,-9356000.0,-12571000.0,-15506000.0,-1471000.0,9524000.0,14127000.0,19714000.0,-5191000.0,-5882000.0,-6942000.0,-4205000.0,-11136000.0,4983000.0,-5323000.0,-9854000.0,20620000.0,38203000.0,56171000.0,2135000.0,11359000.0,,,-875000.0,,,,,,,,,,
HIC,High income,,,,,,,,,,,,,,,,,,,,,,,,,,,,,,,,,,,,,,,,,,,,,,,,,,,,,,,,,,,,,
HKG,"Hong Kong SAR, China",,,,,,,,,,,,,,,,,,,,,,,,,,,,,,,,,,,,,,,,,,,,,,,,,,,,,,,,,,,,,
HND,Honduras,,99070000.0,28076000.0,85263000.0,-76390000.0,10560000.0,55741000.0,215914000.0,83411000.0,133113000.0,60772000.0,219721000.0,459000.0,68763000.0,16262000.0,60712000.0,209985000.0,-63672000.0,-43217000.0,-69627000.0,20241000.0,130202000.0,155258000.0,26690000.0,105946000.0,38479000.0,13337000.0,-2523000.0,-16463000.0,4509000.0,31744000.0,35132000.0,-11912000.0,-40926000.0,14476000.0,35595000.0,-28087000.0,5261000.0,915000.0,61270000.0,130980000.0,63312000.0,51937000.0,68771000.0,-72367000.0,11727000.0,36603000.0,-8044000.0,10631000.0,,,,,,,,,,,,
HPC,Heavily indebted poor countries (HIPC),,,,,,,,,,,,,,,,,,,,,,,,,,,,,,,,,,,,,,,,,,,,,,,,,,,,,,,,,,,,,
HRV,Croatia,,,,,,,,,,,,,,,,,,,,,,,,,,,,,,,,,,,,,,,,,,,,,,,,,,,,,,,,,,,,,
HTI,Haiti,,-1400000.0,,,,,-4326000.0,674000.0,,,,,50000000.0,,,,,,,,,,,,,,,,,,,-1200000.0,,,-3200000.0,-3662000.0,-5252000.0,-5512000.0,9460000.0,60132000.0,7378000.0,3909000.0,-2154000.0,2308000.0,,,,,,,,,,,,,,,,,
HUN,Hungary,,,,,,,,,,,,,,,,,,,,,,,,,,,,,,,,,,,,,,,,,,,,,,,,,,,,,,,,,,,,,
IBD,IBRD only,,,,,,,,,,,,,,,,,,,,,,,,,,,,,,,,,,,,,,,,,,,,,,,,,,,,,,,,,,,,,
IBT,IDA & IBRD total,,,,,,,,,,,,,,,,,,,,,,,,,,,,,,,,,,,,,,,,,,,,,,,,,,,,,,,,,,,,,
IDA,IDA total,,,,,,,,,,,,,,,,,,,,,,,,,,,,,,,,,,,,,,,,,,,,,,,,,,,,,,,,,,,,,
IDB,IDA blend,,,,,,,,,,,,,,,,,,,,,,,,,,,,,,,,,,,,,,,,,,,,,,,,,,,,,,,,,,,,,
IDN,Indonesia,,3545907000.0,11284181000.0,11379968000.0,-2423816000.0,8797859000.0,17496334000.0,9425618000.0,11560449000.0,11310352000.0,3529351000.0,5848367000.0,3150789000.0,1205307000.0,2020188000.0,-2613515000.0,-3450269000.0,-4815515000.0,-5869904000.0,-2773570000.0,-2977812000.0,-5553473000.0,-3126401000.0,2891153000.0,3154318000.0,71658000.0,1492795000.0,-3402009000.0,2506246000.0,1600449000.0,1782408000.0,265267000.0,230568000.0,413533000.0,267387000.0,200218000.0,1252982000.0,2609096000.0,1096933000.0,1053268000.0,776986000.0,46008000.0,43763000.0,611057000.0,1321392000.0,1756452000.0,1097972000.0,821927000.0,621825000.0,280003000.0,162415000.0,,,,,,,,,,
IDX,IDA only,,,,,,,,,,,,,,,,,,,,,,,,,,,,,,,,,,,,,,,,,,,,,,,,,,,,,,,,,,,,,
IMN,Isle of Man,,,,,,,,,,,,,,,,,,,,,,,,,,,,,,,,,,,,,,,,,,,,,,,,,,,,,,,,,,,,,
IND,India,,20684619000.0,10898806000.0,3714862000.0,-22211282000.0,15424413000.0,19738104000.0,41821756000.0,22710104000.0,18179921000.0,8829215000.0,10650169000.0,10399396000.0,20668665000.0,13541431000.0,2812811000.0,374473000.0,7237986000.0,1246676000.0,-1040930000.0,-1406986000.0,-380798000.0,-938128000.0,-790440000.0,35443000.0,956018000.0,1455160000.0,2179887000.0,1767071000.0,89264000.0,1457250000.0,2201692000.0,5003925000.0,2716366000.0,2480229000.0,1954536000.0,1727843000.0,1311306000.0,1175039000.0,828828000.0,789044000.0,13092000.0,-9652000.0,87288000.0,-14428000.0,78033000.0,7501000.0,-97505000.0,-38383000.0,-19010000.0,-48444000.0,,,,,,,,,,
INX,Not classified,,,,,,,,,,,,,,,,,,,,,,,,,,,,,,,,,,,,,,,,,,,,,,,,,,,,,,,,,,,,,
IRL,Ireland,,,,,,,,,,,,,,,,,,,,,,,,,,,,,,,,,,,,,,,,,,,,,,,,,,,,,,,,,,,,,
IRN,"Iran, Islamic Rep.",,-162526000.0,-44652000.0,-176445000.0,-1735411000.0,-403119000.0,-233594000.0,-118369000.0,-251799000.0,-784709000.0,-1080923000.0,-1460101000.0,-1319529000.0,-869892000.0,-222377000.0,661419000.0,664744000.0,1029235000.0,684992000.0,1070348000.0,401815000.0,134267000.0,104066000.0,-296349000.0,-414420000.0,-32575000.0,636513000.0,1258878000.0,,349562000.0,-29678000.0,-18886000.0,-90341000.0,-115730000.0,-131155000.0,,,,,,-185641000.0,,,,,,,,,,,,,,,,,,,,
IRQ,Iraq,,,,,,,,,,,,,,,,,,,,,,,,,,,,,,,,,,,,,,,,,,,,,,,,,,,,,,,,,,,,,
ISL,Iceland,,,,,,,,,,,,,,,,,,,,,,,,,,,,,,,,,,,,,,,,,,,,,,,,,,,,,,,,,,,,,
ISR,Israel,,,,,,,,,,,,,,,,,,,,,,,,,,,,,,,,,,,,,,,,,,,,,,,,,,,,,,,,,,,,,
ITA,Italy,,,,,,,,,,,,,,,,,,,,,,,,,,,,,,,,,,,,,,,,,,,,,,,,,,,,,,,,,,,,,
JAM,Jamaica,,-83962000.0,986763000.0,-9436000.0,-70119000.0,-81617000.0,728957000.0,-49490000.0,-24421000.0,4925000.0,144505000.0,-26517000.0,7738000.0,-19000000.0,34205000.0,21541000.0,81632000.0,32483000.0,-7835000.0,-77429000.0,-42513000.0,-5006000.0,-17226000.0,38264000.0,-28093000.0,16273000.0,-58578000.0,2430000.0,-11456000.0,-62822000.0,-45988000.0,-10183000.0,-21684000.0,-2086000.0,-14229000.0,46676000.0,44853000.0,90748000.0,52218000.0,-42082000.0,-10265000.0,-28815000.0,-407350000.0,44022000.0,-401424000.0,156134000.0,200126000.0,125086000.0,19680000.0,10277000.0,-340000.0,,,,,,,,,,
JOR,Jordan,,531449000.0,600027000.0,154882000.0,226736000.0,234151000.0,254874000.0,281996000.0,255270000.0,113294000.0,115630000.0,1873000.0,16344000.0,41341000.0,20898000.0,-13652000.0,-37309000.0,-44188000.0,29969000.0,,-60350000.0,-59155000.0,-112985000.0,-122741000.0,-154383000.0,-200983000.0,-183518000.0,-126440000.0,-131408000.0,-42867000.0,214301000.0,491298000.0,675163000.0,335079000.0,433776000.0,190152000.0,149694000.0,266917000.0,123817000.0,28671000.0,-6165000.0,50478000.0,78567000.0,104631000.0,898000.0,19091000.0,13151000.0,-1018000.0,,,,,,,,,,,,,
JPN,Japan,,,,,,,,,,,,,,,,,,,,,,,,,,,,,,,,,,,,,,,,,,,,,,,,,,,,,,,,,,,,,
KAZ,Kazakhstan,,,,,,,,,,,10223653000.0,11958329000.0,12075167000.0,10954731000.0,19558777000.0,3565068000.0,5068272000.0,2793522000.0,1570361000.0,2132766000.0,523454000.0,127261000.0,744508000.0,426702000.0,,240220000.0,,,,,,,,,,,,,,,,,,,,,,,,,,,,,,,,,,,
KEN,Kenya,,-1069551000.0,-26836000.0,855336000.0,89735000.0,1208369000.0,-447805000.0,116905000.0,669584000.0,4709000.0,1939000.0,4829000.0,-8601000.0,-11553000.0,-63360000.0,-55502000.0,-64188000.0,123215000.0,-52057000.0,-143962000.0,-77508000.0,-63052000.0,-29533000.0,-121592000.0,-194622000.0,-163407000.0,-281562000.0,-39804000.0,19533000.0,273726000.0,64936000.0,161272000.0,164808000.0,153635000.0,29526000.0,8252000.0,-123545000.0,58738000.0,-39600000.0,-31591000.0,221873000.0,205361000.0,311706000.0,-28792000.0,69845000.0,35451000.0,146957000.0,108273000.0,38211000.0,3099000.0,29497000.0,,,,,,,,,,
KGZ,Kyrgyz Republic,,,,,,,,,,,,,,,,,,,-7153000.0,-78064000.0,-60308000.0,,,23012000.0,7000000.0,,,,,,,,,,,,,,,,,,,,,,,,,,,,,,,,,,,,
KHM,Cambodia,,,,,,,,,,,,,,,,,,,,,,,,,,,,,,,,,,,,,,,,,,,,,,,,,,,,,,,,,,,,,
KIR,Kiribati,,,,,,,,,,,,,,,,,,,,,,,,,,,,,,,,,,,,,,,,,,,,,,,,,,,,,,,,,,,,,
KNA,St. Kitts and Nevis,,,,,,,,,,,-10494000.0,-11860000.0,-14862000.0,-13054000.0,-13588000.0,-15211000.0,-8769000.0,-4641000.0,25294000.0,47950000.0,16554000.0,4649000.0,7478000.0,17433000.0,-1225000.0,-922000.0,2264000.0,246000.0,362000.0,1301000.0,-433000.0,2976000.0,0.0,0.0,0.0,0.0,0.0,,,,,,,,,,,,,,,,,,,,,,,,
KOR,"Korea, Rep.",,,,,,,,,,,,,,,,,,,,,,,,,,,,,,,,,,,,,,,,,,,,,,,,,,,,,,,,,,,,,
KWT,Kuwait,,,,,,,,,,,,,,,,,,,,,,,,,,,,,,,,,,,,,,,,,,,,,,,,,,,,,,,,,,,,,
LAC,Latin America & Caribbean (excluding high income),,-1527286000.0,39431092000.0,11844982000.0,19356845000.0,44799234000.0,76406609000.0,63466336000.0,37633451000.0,55576660000.0,27503545000.0,4560772000.0,40883270000.0,35271740000.0,17294767000.0,-6220311000.0,2228885000.0,-6861932000.0,-10621264000.0,-4085774000.0,-270029000.0,-3754752000.0,32774689000.0,29542519000.0,14384822000.0,11386055000.0,3751529000.0,-1566513000.0,2318025000.0,119543000.0,1491422000.0,-4993555000.0,1715822000.0,3136673000.0,210351000.0,2819386000.0,7690292000.0,10401430000.0,18798047000.0,27815983000.0,15131814000.0,18443306000.0,14461925000.0,11756909000.0,11686491000.0,8965982000.0,9398632000.0,4753749000.0,4594545000.0,2271903000.0,1693383000.0,,,,,,,,,,
LAO,Lao PDR,,-27973000.0,136519000.0,115920000.0,971092000.0,1114261000.0,721204000.0,-92531000.0,76859000.0,28027000.0,40684000.0,,,775374000.0,265405000.0,293326000.0,,,,,,,,,,,,,,,,,,,,,,,,,,,,,,,,,,,,,,,,,,,,,
LBN,Lebanon,,-5416352000.0,5347717000.0,1614480000.0,995778000.0,1862049000.0,1847511000.0,1739885000.0,1633908000.0,1660280000.0,1675053000.0,1639220000.0,-10217000.0,274624000.0,-28353000.0,-25752000.0,-28870000.0,-36268000.0,-75616000.0,12313000.0,-299295000.0,82635000.0,46547000.0,106896000.0,79420000.0,333283000.0,-1784000.0,,,,,,,,,-30022000.0,-29351000.0,-10284000.0,62212000.0,52862000.0,69814000.0,,,,,,,,,,,,,,,,,,,,
LBR,Liberia,,,,,,,,,,,,,,0.0,0.0,0.0,0.0,0.0,0.0,0.0,0.0,0.0,,,,,,,,,,,,,,,,7314000.0,-6454000.0,-1025000.0,-423000.0,54274000.0,42572000.0,34517000.0,,,,,,,,,,,,,,,,,
LBY,Libya,,,,,,,,,,,,,,,,,,,,,,,,,,,,,,,,,,,,,,,,,,,,,,,,,,,,,,,,,,,,,
LCA,St. Lucia,,,,,,,,,,,,,-3072000.0,0.0,-14000.0,-13000.0,-51000.0,-6047000.0,-44000.0,12000.0,-775000.0,9709000.0,273000.0,-9000.0,-10000.0,-10000.0,-10000.0,-528000.0,-771000.0,-929000.0,-782000.0,-359000.0,-15000.0,22000.0,2805000.0,-13000.0,,,,,,,,,,,,,,,,,,,,,,,,,
LCN,Latin America & Caribbean,,,,,,,,,,,,,,,,,,,,,,,,,,,,,,,,,,,,,,,,,,,,,,,,,,,,,,,,,,,,,
LDC,Least developed countries: UN classification,,,,,,,,,,,,,,,,,,,,,,,,,,,,,,,,,,,,,,,,,,,,,,,,,,,,,,,,,,,,,
LIC,Low income,,1102237000.0,3186410000.0,876233000.0,-152065000.0,2012811000.0,1988231000.0,7975652000.0,1094850000.0,178194000.0,732892000.0,715022000.0,130701000.0,68474000.0,356633000.0,113567000.0,215369000.0,130930000.0,367054000.0,30987000.0,476149000.0,-5443000.0,-45699000.0,-24601000.0,-241572000.0,-137966000.0,-113883000.0,-11725000.0,-13378000.0,64569000.0,45369000.0,174535000.0,454116000.0,470237000.0,108477000.0,115282000.0,373451000.0,185914000.0,485359000.0,903469000.0,948652000.0,830937000.0,852112000.0,,,,,,,,,,,,,,,,,,
LIE,Liechtenstein,,,,,,,,,,,,,,,,,,,,,,,,,,,,,,,,,,,,,,,,,,,,,,,,,,,,,,,,,,,,,
LKA,Sri Lanka,,-379770000.0,293685000.0,980196000.0,723391000.0,319612000.0,-882492000.0,1386179000.0,3971731000.0,341501000.0,49341000.0,221601000.0,216610000.0,332324000.0,201369000.0,186700000.0,-56111000.0,34350000.0,-24393000.0,-80925000.0,223205000.0,-62820000.0,185835000.0,158726000.0,64294000.0,101261000.0,-15722000.0,-39573000.0,-36786000.0,63065000.0,10452000.0,-45084000.0,-93223000.0,-63326000.0,9718000.0,43818000.0,82321000.0,58308000.0,221040000.0,182420000.0,86091000.0,10055000.0,-29013000.0,-52649000.0,11910000.0,-10992000.0,51564000.0,9869000.0,-1189000.0,4448000.0,-60000.0,,,,,,,,,,
LMC,Lower middle income,,42169275000.0,32751110000.0,8660673000.0,-13325509000.0,29789695000.0,50337122000.0,67981743000.0,39443558000.0,42552591000.0,26623758000.0,16241105000.0,33433910000.0,38885595000.0,17053138000.0,8146480000.0,5889635000.0,7934306000.0,1398257000.0,-60851000.0,-465994000.0,-3190143000.0,-765006000.0,2322872000.0,-11796000.0,1582176000.0,1117945000.0,3298905000.0,2439825000.0,-1521796000.0,1406764000.0,4044365000.0,7942939000.0,4877881000.0,6033292000.0,3771833000.0,4070551000.0,6112618000.0,9448158000.0,6280692000.0,7683322000.0,6757986000.0,8209034000.0,5742586000.0,3044760000.0,3152422000.0,1242461000.0,1058056000.0,435954000.0,467071000.0,858684000.0,,,,,,,,,,
LMY,Low & middle income,,52987709000.0,51316188000.0,66892850000.0,66398196000.0,48275540000.0,171027337000.0,250296703000.0,216584702000.0,223510442000.0,116275792000.0,3259281000.0,189424906000.0,203745247000.0,128868949000.0,61214809000.0,48190061000.0,21900322000.0,-11774443000.0,-18134895000.0,-6762658000.0,-14654582000.0,29143221000.0,38530397000.0,28936650000.0,23090980000.0,9629648000.0,11555523000.0,29284320000.0,5675273000.0,15853446000.0,8616601000.0,20865259000.0,18722820000.0,10938083000.0,12058860000.0,21944707000.0,22607035000.0,31329162000.0,37755842000.0,32602832000.0,33167992000.0,26178453000.0,21406289000.0,18131631000.0,16430329000.0,12851039000.0,7790126000.0,6586813000.0,3698181000.0,3013569000.0,,,,,,,,,,
LSO,Lesotho,,-156000.0,-172000.0,-237000.0,-327000.0,-4528000.0,-496000.0,-501000.0,-476000.0,-536000.0,-478000.0,-907000.0,-3393000.0,-5550000.0,-8236000.0,-33539000.0,-8676000.0,-6254000.0,-8132000.0,-4810000.0,-4855000.0,8596000.0,24900000.0,21745000.0,29868000.0,11798000.0,-3681000.0,-2863000.0,-5101000.0,1435000.0,-42000.0,1922000.0,10515000.0,11779000.0,-843000.0,-5778000.0,-6895000.0,9715000.0,2459000.0,5466000.0,2324000.0,,,,,,,,,,,,,,,,,,,,
LTE,Late-demographic dividend,,,,,,,,,,,,,,,,,,,,,,,,,,,,,,,,,,,,,,,,,,,,,,,,,,,,,,,,,,,,,
LTU,Lithuania,,,,,,,,,,,,,,,,,,,,,,,,,,,,,,,,,,,,,,,,,,,,,,,,,,,,,,,,,,,,,
LUX,Luxembourg,,,,,,,,,,,,,,,,,,,,,,,,,,,,,,,,,,,,,,,,,,,,,,,,,,,,,,,,,,,,,
LVA,Latvia,,,,,,,,,,,,,,,,,,,,,,,,,,,,,,,,,,,,,,,,,,,,,,,,,,,,,,,,,,,,,
MAC,"Macao SAR, China",,,,,,,,,,,,,,,,,,,,,,,,,,,,,,,,,,,,,,,,,,,,,,,,,,,,,,,,,,,,,
MAF,St. Martin (French part),,,,,,,,,,,,,,,,,,,,,,,,,,,,,,,,,,,,,,,,,,,,,,,,,,,,,,,,,,,,,
MAR,Morocco,,1753609000.0,826229000.0,450952000.0,885183000.0,2620094000.0,1554454000.0,1046848000.0,891146000.0,415968000.0,121299000.0,-27396000.0,-64184000.0,-169349000.0,-808276000.0,102729000.0,-546292000.0,-330978000.0,-375580000.0,91485000.0,331636000.0,-173036000.0,352255000.0,91881000.0,-473634000.0,158259000.0,145550000.0,28746000.0,49066000.0,-111403000.0,318291000.0,240503000.0,298549000.0,305276000.0,716649000.0,236607000.0,458399000.0,207425000.0,839835000.0,209123000.0,833493000.0,623200000.0,579642000.0,1110071000.0,522250000.0,868916000.0,,,,,,,,,,,,,,,
MCO,Monaco,,,,,,,,,,,,,,,,,,,,,,,,,,,,,,,,,,,,,,,,,,,,,,,,,,,,,,,,,,,,,
MDA,Moldova,,93509000.0,127293000.0,212557000.0,-53015000.0,-100893000.0,-120520000.0,111840000.0,109179000.0,143826000.0,115028000.0,-8692000.0,,362209000.0,144518000.0,90364000.0,64257000.0,26435000.0,,28871000.0,,23108000.0,-19391000.0,18374000.0,89904000.0,24235000.0,,,,,,,,,,,,,,,,,,,,,,,,,,,,,,,,,,,
MDG,Madagascar,,17306000.0,106300000.0,68252000.0,-15385000.0,61456000.0,,19585000.0,-2327000.0,-922000.0,-1212000.0,,-565000.0,-428000.0,-3198000.0,-1016000.0,-1088000.0,,-44000.0,-1954000.0,-421000.0,-747000.0,-753000.0,-1360000.0,-4825000.0,-4061000.0,-4926000.0,-8007000.0,-8358000.0,-10809000.0,-15001000.0,-16909000.0,-14637000.0,-15254000.0,-49712000.0,588000.0,3273000.0,74246000.0,48103000.0,63163000.0,139735000.0,166244000.0,18690000.0,21662000.0,1827000.0,-940000.0,-939000.0,170000.0,5966000.0,1737000.0,-769000.0,,,,,,,,,,
MDV,Maldives,,90224000.0,270879000.0,-9416000.0,3774000.0,-33952000.0,147885000.0,-57505000.0,30071000.0,14450000.0,29592000.0,6221000.0,49663000.0,19320000.0,17386000.0,7328000.0,-4286000.0,-3894000.0,12067000.0,489000.0,22000.0,4321000.0,10647000.0,6006000.0,2344000.0,1553000.0,-410000.0,1891000.0,2971000.0,-737000.0,1139000.0,-3480000.0,-1957000.0,-1152000.0,1631000.0,-2604000.0,4950000.0,3001000.0,,,,,,,,,,,,,,,,,,,,,,,
MEA,Middle East & North Africa,,,,,,,,,,,,,,,,,,,,,,,,,,,,,,,,,,,,,,,,,,,,,,,,,,,,,,,,,,,,,
MEX,Mexico,,1585408000.0,-2597122000.0,-173022000.0,-13943727000.0,940339000.0,-2046488000.0,10759117000.0,-6000845000.0,-8578391000.0,255246000.0,-4880807000.0,2516727000.0,3941078000.0,2701801000.0,-3123684000.0,2642246000.0,-1342012000.0,-1612240000.0,6456871000.0,-3993837000.0,8679492000.0,9953572000.0,4520518000.0,831958000.0,1405490000.0,-2278109000.0,-6370371000.0,293120000.0,983391000.0,4377307000.0,-2136749000.0,-1357824000.0,3639592000.0,-371953000.0,-354607000.0,1241362000.0,3067992000.0,5355858000.0,10191215000.0,5913309000.0,3813942000.0,3655350000.0,3327604000.0,3901545000.0,3222868000.0,2384006000.0,1540514000.0,454310000.0,355456000.0,232219000.0,,,,,,,,,,
MHL,Marshall Islands,,,,,,,,,,,,,,,,,,,,,,,,,,,,,,,,,,,,,,,,,,,,,,,,,,,,,,,,,,,,,
MIC,Middle income,,51885472000.0,48129778000.0,66016617000.0,66550261000.0,46262729000.0,169039106000.0,242321051000.0,215489852000.0,223332248000.0,115542900000.0,2544259000.0,189294205000.0,203676773000.0,128512316000.0,61101242000.0,47974692000.0,21769392000.0,-12141497000.0,-18165882000.0,-7238807000.0,-14649139000.0,29188920000.0,38554998000.0,29178222000.0,23228946000.0,9743531000.0,11567248000.0,29297698000.0,5610704000.0,15808077000.0,8442066000.0,20411143000.0,18252583000.0,10829606000.0,11943578000.0,21571256000.0,22421121000.0,30843803000.0,36852373000.0,31654180000.0,32337055000.0,25326341000.0,20592857000.0,17526688000.0,15932476000.0,12217693000.0,7343908000.0,6344111000.0,3497926000.0,2983773000.0,,,,,,,,,,
MKD,North Macedonia,,102411000.0,-159823000.0,352270000.0,166009000.0,137480000.0,-80675000.0,451254000.0,107527000.0,177225000.0,52799000.0,371038000.0,432397000.0,199733000.0,-33411000.0,-78121000.0,26165000.0,-5641000.0,34791000.0,47884000.0,4546000.0,17000000.0,71313000.0,-7146000.0,127000.0,377000.0,-14992000.0,-302000.0,,,,,,,,,,,,,,,,,,,,,,,,,,,,,,,,,
MLI,Mali,,-128000.0,-69000.0,7000.0,-334000.0,-583000.0,-886000.0,-1048000.0,-470000.0,-1288000.0,-1126000.0,1499000.0,-1073000.0,-1012000.0,1474000.0,3169000.0,1803000.0,,,,,,,,,,,-651000.0,,,-1168000.0,-1007000.0,-2351000.0,-6505000.0,129000.0,-2268000.0,1538000.0,22678000.0,3456000.0,1413000.0,7939000.0,790000.0,7457000.0,,,,,,,,,,,,,,,,,,
MLT,Malta,,,,,,,,,,,,,,,,,,,,,,,,,,,,,,,,,,,,,,,,,,,,,,,,,,,,,,,,,,,,,
MMR,Myanmar,,-13500000.0,-53058000.0,-30845000.0,-33203000.0,70822000.0,128512000.0,-56924000.0,6561000.0,-5458000.0,-3891000.0,-2182000.0,1282000.0,4387000.0,1637000.0,-2635000.0,-2539000.0,-2980000.0,-2955000.0,-1681000.0,-2792000.0,-6510000.0,88643000.0,533457000.0,22092000.0,38598000.0,-4467000.0,33117000.0,-777000.0,-2260000.0,-7811000.0,-63973000.0,-29889000.0,2530000.0,-49408000.0,-52396000.0,-11901000.0,16449000.0,57229000.0,94060000.0,29784000.0,94679000.0,85355000.0,,,,,,,,,,,,,,,,,,
MNA,Middle East & North Africa (excluding high income),,-2008041000.0,12006416000.0,2904914000.0,836367000.0,4687501000.0,3394303000.0,2081538000.0,2043336000.0,981002000.0,-14551000.0,-504913000.0,-1753409000.0,-1259019000.0,-2400669000.0,555454000.0,-118121000.0,11621000.0,16582000.0,498689000.0,-204685000.0,-1636026000.0,-922441000.0,-806152000.0,-1143560000.0,629223000.0,1188366000.0,851524000.0,946895000.0,-1322729000.0,3167000.0,1225850000.0,3465556000.0,2318983000.0,3054264000.0,1060564000.0,1524319000.0,1384172000.0,1756787000.0,809117000.0,2024149000.0,3572466000.0,4779061000.0,4008457000.0,2300325000.0,2150470000.0,520961000.0,1176374000.0,208195000.0,243543000.0,279222000.0,,,,,,,,,,
MNE,Montenegro,,-173337000.0,563540000.0,554386000.0,62588000.0,-565376000.0,-293563000.0,843336000.0,388176000.0,315098000.0,359191000.0,186315000.0,4134000.0,7374000.0,15656000.0,,,,,,,,,,,,,,,,,,,,,,,,,,,,,,,,,,,,,,,,,,,,,,
MNG,Mongolia,,763400000.0,733408000.0,-543579000.0,3324734000.0,356914000.0,1053990000.0,,,,,,,,,,,,,,-2542000.0,-2789000.0,-14909000.0,-16197000.0,-18989000.0,-13687000.0,-24043000.0,,18747000.0,,,,,,,,,,,,,,,,,,,,,,,,,,,,,,,,
MNP,Northern Mariana Islands,,,,,,,,,,,,,,,,,,,,,,,,,,,,,,,,,,,,,,,,,,,,,,,,,,,,,,,,,,,,,
MOZ,Mozambique,,950586000.0,2463252000.0,206596000.0,25565000.0,-133956000.0,73893000.0,3197257000.0,50568000.0,-171935000.0,-67308000.0,-206881000.0,-103491000.0,127504000.0,,,,,,,-30674000.0,-10442000.0,,1411000.0,-6108000.0,,-1598000.0,-2173000.0,-2489000.0,-15972000.0,25005000.0,13802000.0,-4261000.0,50083000.0,46673000.0,53271000.0,200620000.0,,,,,,,,,,,,,,,,,,,,,,,,
MRT,Mauritania,,,,,,,,,,-1178000.0,-11198000.0,-1347000.0,-6475000.0,-1496000.0,-1711000.0,14084000.0,211000.0,3388000.0,3691000.0,-828000.0,,,,,,,,,,,,-5051000.0,,-6358000.0,3397000.0,2123000.0,19613000.0,21911000.0,7053000.0,-24924000.0,237000.0,-34054000.0,19595000.0,15395000.0,1619000.0,8036000.0,1605000.0,16158000.0,,,,,,,,,,,,,
MUS,Mauritius,,,,,,,,,,,,,,,,,,,,,,,,,,,,,,,,,,,,,,,,,,,,,,,,,,,,,,,,,,,,,
MWI,Malawi,,,,,,-1928000.0,-3077000.0,,,,,,,-1025000.0,-1534000.0,-2531000.0,-2000000.0,,,,,,,,,-22843000.0,-3392000.0,-12020000.0,-1819000.0,,,,,-10606000.0,-31464000.0,-28878000.0,-18175000.0,-13879000.0,-15574000.0,4751000.0,21043000.0,32936000.0,51810000.0,32737000.0,20573000.0,9715000.0,2984000.0,4810000.0,4883000.0,-155000.0,2583000.0,,,,,,,,,,
MYS,Malaysia,,,,,,,,,,,,,,,,,,,,,,,,,,,,,,,,,,,,,,,,,,,,,,,,,,,,,,,,,,,,,
NAC,North America,,,,,,,,,,,,,,,,,,,,,,,,,,,,,,,,,,,,,,,,,,,,,,,,,,,,,,,,,,,,,
NAM,Namibia,,,,,,,,,,,,,,,,,,,,,,,,,,,,,,,,,,,,,,,,,,,,,,,,,,,,,,,,,,,,,
NCL,New Caledonia,,,,,,,,,,,,,,,,,,,,,,,,,,,,,,,,,,,,,,,,,,,,,,,,,,,,,,,,,,,,,
NER,Niger,,,,,,,,,,,,,,,,,,,,,,-2036000.0,,,-22264000.0,,,,,-54654000.0,9724000.0,10420000.0,-7639000.0,11954000.0,27882000.0,-7117000.0,-9278000.0,-3144000.0,-19899000.0,187951000.0,149483000.0,125328000.0,87386000.0,-2488000.0,-2347000.0,,,,,,,,,,,,,,,,
NGA,Nigeria,,,,,,,,,,,,83142000.0,718898000.0,2151986000.0,174136000.0,607741000.0,798301000.0,663732000.0,,,,,,,,,,,,-119400000.0,-121012000.0,520606000.0,149998000.0,425446000.0,-545265000.0,-953168000.0,-411208000.0,1012677000.0,2414671000.0,1725593000.0,1450383000.0,1233733000.0,1592551000.0,23068000.0,-278446000.0,-154384000.0,-103528000.0,-137501000.0,-9459000.0,-13440000.0,-16126000.0,,,,,,,,,,
NIC,Nicaragua,,-142693000.0,-144361000.0,-30869000.0,135024000.0,269968000.0,378978000.0,513552000.0,499857000.0,681073000.0,509451000.0,278853000.0,504814000.0,438631000.0,-50190000.0,14025000.0,21505000.0,15746000.0,21376000.0,-117778000.0,168875000.0,81423000.0,-12670000.0,-16039000.0,4197000.0,-81116000.0,-6377000.0,-4489000.0,-1897000.0,,19878000.0,11333000.0,2592000.0,7159000.0,5651000.0,13037000.0,10727000.0,27569000.0,-4719000.0,-16727000.0,-26091000.0,-5054000.0,10791000.0,117170000.0,-4211000.0,94891000.0,82546000.0,65988000.0,37363000.0,6257000.0,-783000.0,,,,,,,,,,
NLD,Netherlands,,,,,,,,,,,,,,,,,,,,,,,,,,,,,,,,,,,,,,,,,,,,,,,,,,,,,,,,,,,,,
NOR,Norway,,,,,,,,,,,,,,,,,,,,,,,,,,,,,,,,,,,,,,,,,,,,,,,,,,,,,,,,,,,,,
NPL,Nepal,,,,,,,,,,,,,,,,,,,,,,,,,,,,,,,,,,37386000.0,9120000.0,,,,,,,,,,,,,,,,,,,,,,,,,,
NRU,Nauru,,,,,,,,,,,,,,,,,,,,,,,,,,,,,,,,,,,,,,,,,,,,,,,,,,,,,,,,,,,,,
NZL,New Zealand,,,,,,,,,,,,,,,,,,,,,,,,,,,,,,,,,,,,,,,,,,,,,,,,,,,,,,,,,,,,,
OED,OECD members,,,,,,,,,,,,,,,,,,,,,,,,,,,,,,,,,,,,,,,,,,,,,,,,,,,,,,,,,,,,,
OMN,Oman,,,,,,,,,,,,,,,,,,,,,,,,,,,,,,,,,,,,,,,,,,,,,,,,,,,,,,,,,,,,,
OSS,Other small states,,,,,,,,,,,,,,,,,,,,,,,,,,,,,,,,,,,,,,,,,,,,,,,,,,,,,,,,,,,,,
PAK,Pakistan,,1243928000.0,2474715000.0,4089175000.0,1928128000.0,535814000.0,386465000.0,-213520000.0,,,1734182000.0,25940000.0,579204000.0,260793000.0,-246922000.0,-349730000.0,-133082000.0,-460412000.0,-381896000.0,-530048000.0,-360850000.0,-402522000.0,395306000.0,868630000.0,430211000.0,360745000.0,-199965000.0,660160000.0,619981000.0,-7137000.0,-108349000.0,-10447000.0,-151116000.0,140304000.0,38047000.0,-194299000.0,162222000.0,-86379000.0,444876000.0,-17403000.0,166515000.0,24132000.0,10294000.0,70557000.0,20096000.0,18230000.0,54153000.0,-21968000.0,-8075000.0,70502000.0,43534000.0,,,,,,,,,,
PAN,Panama,,,,,,,,,,,,,,,,,,,,,,,,,,,,,,,,,,,,,,,,,,,,,,,,,,,,,,,,,,,,,
PER,Peru,,,,,2813244000.0,1791537000.0,1602446000.0,-2089859000.0,1140014000.0,158162000.0,985108000.0,313554000.0,2960323000.0,1716408000.0,-333457000.0,-1175239000.0,31015000.0,-26907000.0,27937000.0,288113000.0,446472000.0,291304000.0,943514000.0,1531390000.0,-463267000.0,50498000.0,399795000.0,177448000.0,-96517000.0,-64933000.0,17812000.0,76241000.0,27334000.0,79349000.0,160558000.0,80463000.0,489533000.0,912926000.0,1178614000.0,65331000.0,-93910000.0,248601000.0,-145615000.0,15707000.0,812874000.0,909870000.0,913892000.0,290060000.0,50024000.0,30455000.0,24224000.0,,,,,,,,,,
PHL,Philippines,,-290831000.0,-184367000.0,-678080000.0,-940529000.0,1895173000.0,11585685000.0,-173816000.0,242554000.0,576247000.0,1334723000.0,-1062734000.0,-994336000.0,-952141000.0,-2673537000.0,-652611000.0,-513543000.0,-1059846000.0,-458889000.0,1021797000.0,-50033000.0,163113000.0,721506000.0,523540000.0,-329596000.0,-215099000.0,-92801000.0,-162180000.0,-1290235000.0,-212185000.0,-286235000.0,-104060000.0,-515606000.0,-472392000.0,352944000.0,868823000.0,263492000.0,729194000.0,1056872000.0,731767000.0,865602000.0,665876000.0,455894000.0,604783000.0,517021000.0,349397000.0,259498000.0,-85960000.0,31077000.0,-55769000.0,98095000.0,,,,,,,,,,
PLW,Palau,,,,,,,,,,,,,,,,,,,,,,,,,,,,,,,,,,,,,,,,,,,,,,,,,,,,,,,,,,,,,
PNG,Papua New Guinea,,-869933000.0,65127000.0,-972412000.0,-1366258000.0,-132593000.0,29529000.0,6502062000.0,2277186000.0,7058779000.0,2418291000.0,24897000.0,149477000.0,-205305000.0,60151000.0,183474000.0,-13797000.0,39057000.0,-108533000.0,-64571000.0,26932000.0,-30216000.0,21377000.0,114329000.0,115816000.0,-311329000.0,-197777000.0,-441712000.0,579712000.0,-29286000.0,48639000.0,144984000.0,87982000.0,9829000.0,209830000.0,166848000.0,67675000.0,295251000.0,414041000.0,310143000.0,37866000.0,11281000.0,-74734000.0,22481000.0,-7555000.0,-30439000.0,-39183000.0,-42662000.0,56265000.0,173767000.0,128144000.0,,,,,,,,,,
POL,Poland,,,,,,,,,,,,,,,,,,,,,,,,,,,,,,,,,,,,,,,,,,,,,,,,,,,,,,,,,,,,,
PRE,Pre-demographic dividend,,,,,,,,,,,,,,,,,,,,,,,,,,,,,,,,,,,,,,,,,,,,,,,,,,,,,,,,,,,,,
PRI,Puerto Rico,,,,,,,,,,,,,,,,,,,,,,,,,,,,,,,,,,,,,,,,,,,,,,,,,,,,,,,,,,,,,
PRK,"Korea, Dem. People's Rep.",,,,,,,,,,,,,,,,,,,,,,,,,,,,,,,,,,,,,,,,,,,,,,,,,,,,,,,,,,,,,
PRT,Portugal,,,,,,,,,,,,,,,,,,,,,,,,,,,,,,,,,,,,,,,,,,,,,,,,,,,,,,,,,,,,,
PRY,Paraguay,,-854130000.0,-965377000.0,-936741000.0,-542921000.0,-446585000.0,-684026000.0,-871210000.0,-593860000.0,-151387000.0,1514856000.0,1235290000.0,1196093000.0,1117166000.0,1088474000.0,1003886000.0,378504000.0,373774000.0,466963000.0,-96045000.0,-99440000.0,422336000.0,71389000.0,84893000.0,54707000.0,-15118000.0,23502000.0,-49477000.0,-163093000.0,-53917000.0,-9119000.0,34221000.0,-33380000.0,34699000.0,28876000.0,-5227000.0,26577000.0,71691000.0,137700000.0,49018000.0,88467000.0,99561000.0,63293000.0,25610000.0,14587000.0,29922000.0,20990000.0,183000.0,-287000.0,468000.0,3446000.0,,,,,,,,,,
PSE,West Bank and Gaza,,,,,,,,,,,,,,,,,,,,,,,,,,,,,,,,,,,,,,,,,,,,,,,,,,,,,,,,,,,,,
PSS,Pacific island small states,,,,,,,,,,,,,,,,,,,,,,,,,,,,,,,,,,,,,,,,,,,,,,,,,,,,,,,,,,,,,
PST,Post-demographic dividend,,,,,,,,,,,,,,,,,,,,,,,,,,,,,,,,,,,,,,,,,,,,,,,,,,,,,,,,,,,,,
PYF,French Polynesia,,,,,,,,,,,,,,,,,,,,,,,,,,,,,,,,,,,,,,,,,,,,,,,,,,,,,,,,,,,,,
QAT,Qatar,,,,,,,,,,,,,,,,,,,,,,,,,,,,,,,,,,,,,,,,,,,,,,,,,,,,,,,,,,,,,
ROU,Romania,,,,,,,,,,,,,,,,,,,,,,,,,,,,,,,,,,,,,,,,,,,,,,,,,,,,,,,,,,,,,
RUS,Russian Federation,,-31614581000.0,-55893838000.0,2225490000.0,22895118000.0,-60024689000.0,-35185869000.0,43574589000.0,70765914000.0,46982405000.0,23425587000.0,-18508121000.0,45733454000.0,52579574000.0,25195034000.0,33436558000.0,20045712000.0,9609870000.0,-386984000.0,-618675000.0,-468790000.0,-153618000.0,1246122000.0,-674451000.0,224140000.0,555448000.0,-280440000.0,2468313000.0,9334506000.0,,,,,,,,,,,,,,,,,,,,,,,,,,,,,,,,
RWA,Rwanda,,,,,,,,,,,,,,,,,,,,,,,,,,,,,,,,,,,,,,,,,,,,,,,,,,,,,,,,,,,,,
SAS,South Asia,,21292124000.0,15820362000.0,9052274000.0,-19791618000.0,16539143000.0,20337452000.0,43366667000.0,26904754000.0,20209020000.0,10939412000.0,11259415000.0,11500923000.0,21380427000.0,13489249000.0,2640594000.0,166706000.0,6790578000.0,845995000.0,-1603129000.0,-1506274000.0,-873526000.0,-382201000.0,207262000.0,496560000.0,1392522000.0,1203159000.0,2782981000.0,2325230000.0,168932000.0,1401957000.0,2102202000.0,4804600000.0,2831538000.0,2593161000.0,1801449000.0,2015447000.0,1332634000.0,1862573000.0,1012422000.0,1052352000.0,56287000.0,-16283000.0,103764000.0,16176000.0,82261000.0,114539000.0,-96293000.0,-47042000.0,55940000.0,-4970000.0,,,,,,,,,,
SAU,Saudi Arabia,,,,,,,,,,,,,,,,,,,,,,,,,,,,,,,,,,,,,,,,,,,,,,,,,,,,,,,,,,,,,
SDN,Sudan,,0.0,0.0,,,,,,,,,,,,,,,,,,543279000.0,0.0,,,,,,,,,,,,,,,-547000.0,,115440000.0,179566000.0,137636000.0,46574000.0,31088000.0,51924000.0,90954000.0,190361000.0,197492000.0,35716000.0,9395000.0,2572000.0,-2470000.0,,,,,,,,,,
SEN,Senegal,,777402000.0,407048000.0,10118000.0,49218000.0,,34854000.0,,3464000.0,,-63477000.0,156547000.0,-37024000.0,-34059000.0,21974000.0,17722000.0,92889000.0,427000.0,347000.0,45733000.0,3269000.0,,,14565000.0,-11110000.0,-25303000.0,-9334000.0,-5748000.0,-26963000.0,-30288000.0,-14921000.0,-50714000.0,-49522000.0,-24094000.0,31138000.0,-8966000.0,-7818000.0,47636000.0,-4116000.0,-17774000.0,3732000.0,47941000.0,89858000.0,41773000.0,41622000.0,19067000.0,32088000.0,46230000.0,,,,,,,,,,,,,
SGP,Singapore,,,,,,,,,,,,,,,,,,,,,,,,,,,,,,,,,,,,,,,,,,,,,,,,,,,,,,,,,,,,,
SLB,Solomon Islands,,,,,,,,,,,,,,,,,,,,,,,,,,,-2088000.0,190000.0,-1393000.0,-3135000.0,-3146000.0,-1722000.0,,,7114000.0,6000000.0,5000000.0,,,,,,,,,,,,,,,,,,,,,,,,
SLE,Sierra Leone,,,,,,,,,,,,,,,-43000.0,,,,,0.0,,0.0,,-2000.0,,-28798000.0,-490000.0,,,,,10728000.0,,,-1589000.0,-3961000.0,-3668000.0,-7482000.0,11043000.0,10187000.0,16008000.0,26262000.0,19959000.0,7822000.0,-3115000.0,8671000.0,26654000.0,5414000.0,1019000.0,-3296000.0,-1401000.0,,,,,,,,,,
SLV,El Salvador,,212281000.0,177479000.0,-44489000.0,380331000.0,631256000.0,390685000.0,473517000.0,59764000.0,227414000.0,130809000.0,174389000.0,297873000.0,-239914000.0,424448000.0,366056000.0,164951000.0,-4116000.0,-38440000.0,50619000.0,102227000.0,18865000.0,-28451000.0,46812000.0,22146000.0,-31223000.0,-59865000.0,-2735000.0,-14650000.0,16997000.0,5466000.0,41279000.0,-16402000.0,-37457000.0,-53898000.0,-41708000.0,-24032000.0,-31511000.0,31376000.0,-1362000.0,1412000.0,-49922000.0,4541000.0,-7222000.0,33814000.0,11531000.0,85450000.0,-5311000.0,31458000.0,14835000.0,5862000.0,,,,,,,,,,
SMR,San Marino,,,,,,,,,,,,,,,,,,,,,,,,,,,,,,,,,,,,,,,,,,,,,,,,,,,,,,,,,,,,,
SOM,Somalia,,,,,,,,,,,,,,,,,,,,,,,,,,,,,,,,,,,,,,,,,,,,,-417000.0,-801000.0,132000.0,3512000.0,2224000.0,-502000.0,-498000.0,,,,,,,,,,
SRB,Serbia,,1314531000.0,704728000.0,2056061000.0,-1874493000.0,-686275000.0,-2790017000.0,-988560000.0,-494152000.0,203494000.0,295489000.0,242919000.0,3399557000.0,4064577000.0,3836356000.0,2070754000.0,1190732000.0,467665000.0,,0.0,35000000.0,0.0,0.0,,,,,,,-879802000.0,-904171000.0,-417693000.0,169752000.0,-576476000.0,-808680000.0,-76336000.0,-315178000.0,711233000.0,24686000.0,808179000.0,1838130000.0,1406928000.0,1531815000.0,1453074000.0,897290000.0,625079000.0,351710000.0,588699000.0,597138000.0,408721000.0,220767000.0,,,,,,,,,,
SSA,Sub-Saharan Africa (excluding high income),,10407439000.0,10832994000.0,8032742000.0,3742519000.0,14220542000.0,13934081000.0,19361510000.0,10985101000.0,8336376000.0,5293711000.0,3611027000.0,3469142000.0,4424435000.0,-1483969000.0,3022184000.0,1428037000.0,-1044635000.0,292669000.0,212049000.0,1541870000.0,-1910290000.0,-1497216000.0,-1315927000.0,-1824553000.0,146250000.0,-817058000.0,765127000.0,399670000.0,126260000.0,448991000.0,1342966000.0,1391790000.0,1026741000.0,606573000.0,119930000.0,523818000.0,2379330000.0,4601803000.0,3576325000.0,4108490000.0,3236113000.0,3592881000.0,1605346000.0,1024986000.0,1180406000.0,893079000.0,647592000.0,381540000.0,224751000.0,369532000.0,,,,,,,,,,
SSD,South Sudan,,,,,,,,,,,,,,,,,,,,,,,,,,,,,,,,,,,,,,,,,,,,,,,,,,,,,,,,,,,,,
SSF,Sub-Saharan Africa,,,,,,,,,,,,,,,,,,,,,,,,,,,,,,,,,,,,,,,,,,,,,,,,,,,,,,,,,,,,,
SST,Small states,,,,,,,,,,,,,,,,,,,,,,,,,,,,,,,,,,,,,,,,,,,,,,,,,,,,,,,,,,,,,
STP,Sao Tome and Principe,,,,,,10000000.0,,,,,,,,,,,,,,,,,,,,,,,,,,,,,,,5402000.0,,,,,,,,,,,,,,,,,,,,,,,,
SUR,Suriname,,,,,,,,,,,,,,,,,,,,,,,,,,,,,,,,,,,,,,,,,,,,,,,,,,,,,,,,,,,,,
SVK,Slovak Republic,,,,,,,,,,,,,,,,,,,,,,,,,,,,,,,,,,,,,,,,,,,,,,,,,,,,,,,,,,,,,
SVN,Slovenia,,,,,,,,,,,,,,,,,,,,,,,,,,,,,,,,,,,,,,,,,,,,,,,,,,,,,,,,,,,,,
SWE,Sweden,,,,,,,,,,,,,,,,,,,,,,,,,,,,,,,,,,,,,,,,,,,,,,,,,,,,,,,,,,,,,
SWZ,Eswatini,,0.0,-1197000.0,-591000.0,-779000.0,-912000.0,-1067000.0,-1149000.0,-1367000.0,-1527000.0,-1584000.0,-1386000.0,-1421000.0,-1645000.0,-1722000.0,-1232000.0,-435000.0,5204000.0,7387000.0,8590000.0,,,,32586000.0,,,,,,,-1935000.0,-1591000.0,-1701000.0,-12335000.0,-2466000.0,9237000.0,5181000.0,-3923000.0,-4000000.0,-5022000.0,-2638000.0,-1722000.0,27445000.0,-95000.0,-102000.0,-1187000.0,-2549000.0,-7396000.0,-2473000.0,-1792000.0,-1015000.0,,,,,,,,,,
SXM,Sint Maarten (Dutch part),,,,,,,,,,,,,,,,,,,,,,,,,,,,,,,,,,,,,,,,,,,,,,,,,,,,,,,,,,,,,
SYC,Seychelles,,,,,,,,,,,,,,,,,,,,,,,,,,,,,,,,,,,,,,,,,,,,,,,,,,,,,,,,,,,,,
SYR,Syrian Arab Republic,,-612000.0,-1519000.0,-296000.0,-45000.0,0.0,0.0,0.0,0.0,-2332000.0,-2315000.0,-2437000.0,-2478000.0,,,,,,,,,,,,,,,,,,,,,,,,,,,,,,,,,,,,,,,,,,,,,,,,
TCA,Turks and Caicos Islands,,,,,,,,,,,,,,,,,,,,,,,,,,,,,,,,,,,,,,,,,,,,,,,,,,,,,,,,,,,,,
TCD,Chad,,,,,,,931489000.0,597499000.0,,,,,,,,,,,,,,,,,,,,,,,,,,,,,,,,,,8837000.0,,,,,,,-1800000.0,9355000.0,2026000.0,,,,,,,,,,
TEA,East Asia & Pacific (IDA & IBRD countries),,,,,,,,,,,,,,,,,,,,,,,,,,,,,,,,,,,,,,,,,,,,,,,,,,,,,,,,,,,,,
TEC,Europe & Central Asia (IDA & IBRD countries),,,,,,,,,,,,,,,,,,,,,,,,,,,,,,,,,,,,,,,,,,,,,,,,,,,,,,,,,,,,,
TGO,Togo,,112469000.0,-7217000.0,-10437000.0,-10979000.0,1604000.0,,,,,,,,,,,,,,,,,,-6065000.0,,,,,,,-120000.0,,-1850000.0,-8000000.0,-22532000.0,-13519000.0,-11829000.0,-3876000.0,-6097000.0,-7054000.0,40928000.0,124439000.0,159584000.0,90286000.0,55247000.0,32705000.0,18611000.0,3233000.0,,,,,,,,,,,,,
THA,Thailand,,,,,,-1465452000.0,,7011089000.0,14618402000.0,9010450000.0,3356151000.0,1241885000.0,-1854431000.0,-1274623000.0,4914572000.0,1050033000.0,914223000.0,1340901000.0,-890964000.0,-5285374000.0,-4200993000.0,-4322706000.0,-825057000.0,-1557580000.0,6041485000.0,3697982000.0,-198371000.0,784781000.0,1634316000.0,3012516000.0,1595484000.0,1518057000.0,415725000.0,-16302000.0,-383746000.0,781409000.0,730542000.0,295504000.0,624036000.0,905286000.0,1229514000.0,876388000.0,340471000.0,165125000.0,138812000.0,107149000.0,195327000.0,-48172000.0,80857000.0,26691000.0,68402000.0,,,,,,,,,,
TJK,Tajikistan,,-115154000.0,81370000.0,-219125000.0,130430000.0,293582000.0,283387000.0,98254000.0,198811000.0,44006000.0,79241000.0,-63315000.0,11150000.0,2687000.0,,-2956000.0,-23651000.0,-38563000.0,-19199000.0,,,32530000.0,-7053000.0,,,,,68000000.0,,,,,,,,,,,,,,,,,,,,,,,,,,,,,,,,,
TKM,Turkmenistan,,-15940000.0,253660000.0,,,,,,,,-20911000.0,-2578000.0,-16563000.0,-20763000.0,-56363000.0,-65681000.0,-185549000.0,-247831000.0,-294006000.0,-340017000.0,-256553000.0,47993000.0,387168000.0,786610000.0,165958000.0,,,,,,,,,,,,,,,,,,,,,,,,,,,,,,,,,,,,
TLA,Latin America & the Caribbean (IDA & IBRD countries),,,,,,,,,,,,,,,,,,,,,,,,,,,,,,,,,,,,,,,,,,,,,,,,,,,,,,,,,,,,,
TLS,Timor-Leste,,,,,,,,,,,,,,,,,,,,,,,,,,,,,,,,,,,,,,,,,,,,,,,,,,,,,,,,,,,,,
TMN,Middle East & North Africa (IDA & IBRD countries),,,,,,,,,,,,,,,,,,,,,,,,,,,,,,,,,,,,,,,,,,,,,,,,,,,,,,,,,,,,,
TON,Tonga,,,,,,-130000.0,-428000.0,-270000.0,,,144000.0,,,,,,,,,,,,,,,,,,,,,,,,,,,,,,,,,,,,,,,,,,,,,,,,,,
TSA,South Asia (IDA & IBRD),,,,,,,,,,,,,,,,,,,,,,,,,,,,,,,,,,,,,,,,,,,,,,,,,,,,,,,,,,,,,
TSS,Sub-Saharan Africa (IDA & IBRD countries),,,,,,,,,,,,,,,,,,,,,,,,,,,,,,,,,,,,,,,,,,,,,,,,,,,,,,,,,,,,,
TTO,Trinidad and Tobago,,,,,,,,,,,,,,,,,,,,,,,,,,,,,,,,,,,,,,,,,,,,,,,,,,,,,,,,,,,,,
TUN,Tunisia,,347331000.0,-224101000.0,-125773000.0,-185739000.0,-107490000.0,68218000.0,-401447000.0,-273130000.0,-97575000.0,-593764000.0,38115000.0,200308000.0,28750000.0,43663000.0,-13328000.0,113853000.0,102214000.0,150893000.0,188934000.0,570074000.0,139456000.0,-19857000.0,-3854000.0,241865000.0,-96000000.0,-120346000.0,-97759000.0,73799000.0,-167358000.0,-137292000.0,-141125000.0,37347000.0,-121476000.0,112323000.0,99640000.0,-57446000.0,202690000.0,28781000.0,83976000.0,106693000.0,318369000.0,340016000.0,356099000.0,,,,,,,,,,,,,,,,,
TUR,Turkey,,-13566715000.0,-2099805000.0,8729550000.0,15084614000.0,-8601644000.0,18301442000.0,16212298000.0,9818157000.0,8710352000.0,-6671779000.0,-14264034000.0,22353360000.0,33929013000.0,28609556000.0,13886145000.0,10263606000.0,15247459000.0,6887351000.0,-1859090000.0,3332259000.0,4990293000.0,3340924000.0,1771640000.0,1553216000.0,168803000.0,-494222000.0,2512006000.0,883631000.0,-243798000.0,445490000.0,571599000.0,1383179000.0,1099866000.0,1203379000.0,6251000.0,282570000.0,142733000.0,150851000.0,-4910000.0,643015000.0,3068803000.0,447392000.0,637465000.0,238877000.0,-9804000.0,51242000.0,57370000.0,37990000.0,53944000.0,-14685000.0,,,,,,,,,,
TUV,Tuvalu,,,,,,,,,,,,,,,,,,,,,,,,,,,,,,,,,,,,,,,,,,,,,,,,,,,,,,,,,,,,,
TZA,Tanzania,,466305000.0,-53559000.0,716863000.0,158618000.0,300932000.0,219197000.0,922588000.0,335280000.0,560697000.0,136925000.0,,,2297000.0,10973000.0,19084000.0,5142000.0,19244000.0,-17726000.0,-16983000.0,-11511000.0,-12331000.0,-13762000.0,-17631000.0,-15819000.0,18468000.0,2262000.0,18306000.0,-44521000.0,-7645000.0,5532000.0,26300000.0,27274000.0,37943000.0,68380000.0,46604000.0,32775000.0,23012000.0,27209000.0,76058000.0,84463000.0,65066000.0,55320000.0,30022000.0,22247000.0,,,,,,,,,,,,,,,,
UGA,Uganda,,311361000.0,-154950000.0,316424000.0,-581014000.0,,,,,,-199000.0,-255000.0,-554000.0,-786000.0,-720000.0,-712000.0,-716000.0,-711000.0,-611000.0,3294000.0,-1297000.0,-1360000.0,-1718000.0,-1434000.0,-7106000.0,-8769000.0,-15176000.0,898000.0,-8363000.0,-24982000.0,16298000.0,5099000.0,-718000.0,119555000.0,30760000.0,5815000.0,5551000.0,-8504000.0,27587000.0,-12197000.0,44239000.0,41039000.0,83743000.0,,4799000.0,-2818000.0,11990000.0,-4290000.0,1412000.0,5228000.0,6169000.0,,,,,,,,,,
UKR,Ukraine,,2162273000.0,1491554000.0,-2799318000.0,-3699138000.0,-4185331000.0,-293727000.0,1029421000.0,-6034556000.0,3164724000.0,3395562000.0,175028000.0,16358385000.0,13909464000.0,9062533000.0,3242239000.0,4625683000.0,2278201000.0,590285000.0,504317000.0,387039000.0,-320789000.0,264761000.0,796337000.0,125183000.0,-19467000.0,208015000.0,441401000.0,,,,,,,,,,,,,,,,,,,,,,,,,,,,,,,,,
UMC,Upper middle income,,9716197000.0,15378668000.0,57355944000.0,79875770000.0,16473034000.0,118701984000.0,174339308000.0,176046294000.0,180779657000.0,88919142000.0,-13696846000.0,155860295000.0,164791178000.0,111459178000.0,52954762000.0,42085057000.0,13835086000.0,-13539754000.0,-18105031000.0,-6772813000.0,-11458996000.0,29953926000.0,36232126000.0,29190018000.0,21646770000.0,8625586000.0,8268343000.0,26857873000.0,7132500000.0,14401313000.0,4397701000.0,12468204000.0,13374702000.0,4796314000.0,8171745000.0,17500705000.0,16308503000.0,21395645000.0,30571681000.0,23970858000.0,25579069000.0,17117307000.0,14850271000.0,14481928000.0,12780054000.0,10975232000.0,6285852000.0,5908157000.0,3030855000.0,2125089000.0,,,,,,,,,,
URY,Uruguay,,,,,,,,,,,,,,,,,,,,,,,,,,,,,,,,,,,,,,,,,,,,,,,,,,,,,,,,,,,,,
USA,United States,,,,,,,,,,,,,,,,,,,,,,,,,,,,,,,,,,,,,,,,,,,,,,,,,,,,,,,,,,,,,
UZB,Uzbekistan,,1061126000.0,-50886000.0,-137701000.0,858877000.0,541462000.0,1413088000.0,1310572000.0,151732000.0,185069000.0,513969000.0,1658387000.0,262623000.0,20614000.0,-243512000.0,-239546000.0,-164531000.0,25627000.0,-76142000.0,-17723000.0,-76942000.0,717374000.0,445756000.0,202266000.0,428479000.0,,,,,,,,,,,,,,,,,,,,,,,,,,,,,,,,,,,,
VCT,St. Vincent and the Grenadines,,-1340000.0,-2587000.0,-3387000.0,-3387000.0,-6387000.0,-398000.0,-7901000.0,-12423000.0,-10925000.0,-11110000.0,-10740000.0,5875000.0,-11253000.0,-14621000.0,22277000.0,24470000.0,20682000.0,7515000.0,-400000.0,-400000.0,57482000.0,-400000.0,-1560000.0,,51000.0,4749000.0,,,,,,,,,,,,,,,,,,,,,,,,,,,,,,,,,,
VEN,"Venezuela, RB",,0.0,0.0,-13000.0,-12000.0,5025810000.0,-62860000.0,-53684000.0,1698390000.0,9852011000.0,7368073000.0,6934452000.0,4807679000.0,4218765000.0,-1277123000.0,-2695722000.0,811089000.0,743176000.0,-317621000.0,-958213000.0,1481141000.0,-721342000.0,411558000.0,2689932000.0,1261661000.0,-215950000.0,-382357000.0,-595534000.0,-108240000.0,-338177000.0,-921959000.0,79971000.0,-898656000.0,-1612107000.0,-1355752000.0,-516497000.0,-81012000.0,1404254000.0,810261000.0,1299627000.0,1507106000.0,3795859000.0,1701194000.0,1592757000.0,932918000.0,-380411000.0,-256363000.0,8436000.0,314451000.0,314058000.0,211439000.0,,,,,,,,,,
VGB,British Virgin Islands,,,,,,,,,,,,,,,,,,,,,,,,,,,,,,,,,,,,,,,,,,,,,,,,,,,,,,,,,,,,,
VIR,Virgin Islands (U.S.),,,,,,,,,,,,,,,,,,,,,,,,,,,,,,,,,,,,,,,,,,,,,,,,,,,,,,,,,,,,,
VNM,Vietnam,,4366879000.0,4434573000.0,4724955000.0,4930834000.0,5263040000.0,5228646000.0,1952523000.0,1793998000.0,674104000.0,1912225000.0,465516000.0,491038000.0,319258000.0,-46533000.0,-106205000.0,34299000.0,-264248000.0,-650261000.0,-599603000.0,-712271000.0,-783780000.0,-365266000.0,318918000.0,216878000.0,356013000.0,-29348000.0,,,,,-3298000.0,,,,,,,,,,,,,,,,,,,,,,,,,,,,,
VUT,Vanuatu,,,,,,,,,,,,,,,,,,,,,,,,,,,,,,,,,178000.0,67000.0,-218000.0,-102000.0,1325000.0,422000.0,,,,,,,,,,,,,,,,,,,,,,,
WLD,World,,,,,,,,,,,,,,,,,,,,,,,,,,,,,,,,,,,,,,,,,,,,,,,,,,,,,,,,,,,,,
WSM,Samoa,,,,,,,,,,,,,,,,,,,,,,,,,,,,,,,,,,,,-407000.0,1983000.0,-1530000.0,-842000.0,-1110000.0,-1823000.0,-1781000.0,653000.0,1771000.0,-469000.0,-383000.0,324000.0,3429000.0,,,,,,,,,,,,,
XKX,Kosovo,,99935000.0,12898000.0,94391000.0,71737000.0,13900000.0,-21641000.0,,,,,,,,,,,,,,,,,,,,,,,,,,,,,,,,,,,,,,,,,,,,,,,,,,,,,,
YEM,"Yemen, Rep.",,,,,,,-575000.0,-908000.0,-933000.0,-1010000.0,-971000.0,-1020000.0,-1077000.0,-1003000.0,-375000.0,-69000.0,0.0,0.0,0.0,-6702000.0,-263000.0,5052000.0,1762000.0,,,,,,,,,227987000.0,328645000.0,173733000.0,128869000.0,,,,,,,,,,,,,,,,,,,,,,,,,,
ZAF,South Africa,,-863559000.0,4537874000.0,9155511000.0,3427012000.0,8814228000.0,4693366000.0,1702100000.0,1343347000.0,2204664000.0,1303902000.0,-195202000.0,-85249000.0,937450000.0,-416531000.0,902564000.0,-668222000.0,-2125414000.0,-1978123000.0,-1302719000.0,-148298000.0,-1401862000.0,-698047000.0,-1120037000.0,-844727000.0,747519000.0,20393000.0,,,,,,,,,,,,,,,,,,,,,,,,,,,,,,,,,,
ZMB,Zambia,,7174221000.0,1509482000.0,1577610000.0,2937509000.0,1093982000.0,,544762000.0,,,,,,,218744000.0,18830000.0,,-96408000.0,77693000.0,87720000.0,-9013000.0,40782000.0,-34295000.0,-9560000.0,-28628000.0,-39286000.0,-26981000.0,,,-7094000.0,-9302000.0,10121000.0,-32719000.0,-38962000.0,,,37886000.0,32117000.0,55283000.0,-18270000.0,119143000.0,4582000.0,-128954000.0,40751000.0,34676000.0,,,,,,,,,,,,,,,,
ZWE,Zimbabwe,,-287401000.0,495552000.0,378003000.0,43303000.0,634949000.0,1114277000.0,1332362000.0,927443000.0,312289000.0,507296000.0,200000.0,14100000.0,48600000.0,-5282000.0,-10883000.0,-11642000.0,-36540000.0,-44376000.0,-70845000.0,-34667000.0,-11998000.0,-277177000.0,-16594000.0,12477000.0,144236000.0,-96293000.0,-77564000.0,95016000.0,121872000.0,127490000.0,95696000.0,-52761000.0,-78966000.0,-78912000.0,-39807000.0,-25771000.0,172420000.0,361088000.0,253545000.0,-12995000.0,,,,,,,,,,,,,,,,,,,,
