economy,Country Name,YR2020,YR2019,YR2018,YR2017,YR2016,YR2015,YR2014,YR2013,YR2012,YR2011,YR2010,YR2009,YR2008,YR2007,YR2006,YR2005,YR2004,YR2003,YR2002,YR2001,YR2000,YR1999,YR1998,YR1997,YR1996,YR1995,YR1994,YR1993,YR1992,YR1991,YR1990,YR1989,YR1988,YR1987,YR1986,YR1985,YR1984,YR1983,YR1982,YR1981,YR1980,YR1979,YR1978,YR1977,YR1976,YR1975,YR1974,YR1973,YR1972,YR1971,YR1970,YR1969,YR1968,YR1967,YR1966,YR1965,YR1964,YR1963,YR1962,YR1961,YR1960
ABW,Aruba,,,,,,,,,,,,,,,,,,,,,,,,,,,,,,,,,,,,,,,,,,,,,,,,,,,,,,,,,,,,,
AFE,Africa Eastern and Southern,,,,,,,,,,,,,,,,,,,,,,,,,,,,,,,,,,,,,,,,,,,,,,,,,,,,,,,,,,,,,
AFG,Afghanistan,,32780041.6,32675060.7,30597878.7,30269882.9,27416416.2,21248292.7,11683362.4,9911879.8,9747904.9,8675000.0,9670000.0,7292000.0,4514050.9,9259252.2,,,,,,,,,,,,,,,,,,,,,,,,,,,,,,,,,,,,,,,,,,,,,,
AFW,Africa Western and Central,,,,,,,,,,,,,,,,,,,,,,,,,,,,,,,,,,,,,,,,,,,,,,,,,,,,,,,,,,,,,
AGO,Angola,,7955187886.8,7032356286.7,6548231481.1,7400762458.2,5041142300.1,5899975196.4,4636393627.9,4192488298.5,2834643245.4,2285596902.2,3523080992.8,1572620064.2,4362299771.9,4328671475.8,2545594455.8,1867584095.1,1476163082.3,1424848885.4,2208991179.1,1679565380.7,1383536131.2,1487007553.4,964534498.9,947223887.7,414832491.6,204132717.8,88548945.3,191267718.4,335520412.6,282814344.9,241320178.7,,,,,,,,,,,,,,,,,,,,,,,,,,,,,
ALB,Albania,,368381822.9,673540326.8,305197356.3,274931207.8,589275310.5,255135218.9,196787971.1,290272156.1,295849488.5,240439315.8,151300057.0,101465558.3,86467957.1,81924640.6,63286184.4,57478154.0,41247994.9,37376310.9,18006135.1,16514240.6,13849748.1,16696943.2,13658225.6,10728376.8,4950294.4,17198938.5,7130952.4,1917988.2,3568063.5,,,,,,,,,,,,,,,,,,,,,,,,,,,,,,,
AND,Andorra,,,,,,,,,,,,,,,,,,,,,,,,,,,,,,,,,,,,,,,,,,,,,,,,,,,,,,,,,,,,,
ARB,Arab World,,,,,,,,,,,,,,,,,,,,,,,,,,,,,,,,,,,,,,,,,,,,,,,,,,,,,,,,,,,,,
ARE,United Arab Emirates,,,,,,,,,,,,,,,,,,,,,,,,,,,,,,,,,,,,,,,,,,,,,,,,,,,,,,,,,,,,,
ARG,Argentina,,31670929229.3,26775850134.6,30247161650.6,17667247820.3,11510933755.5,10108412452.8,7424352267.0,6097798413.8,7820481977.8,8734949204.2,7623385200.5,5873587091.3,5011131954.0,4004566750.8,3178284455.9,2583475133.6,6833401361.2,3577304413.7,9994574595.3,14081205317.3,11740160459.7,9608478923.6,9335375521.9,6995043002.2,5253002651.8,3613640783.9,4447111158.5,3230342128.0,3776348514.6,4835574393.2,2792957639.1,3778673673.5,4645376194.0,4726480553.4,4287866477.8,2601223907.0,2466844770.9,2341053608.3,2173698889.5,2065779181.2,1489840750.2,2138295836.9,1062465123.0,889630565.4,806543586.5,810832252.6,678452864.9,487413787.2,442763471.6,472423169.7,,,,,,,,,,
ARM,Armenia,,756192156.0,299971188.1,230440788.2,195848137.2,359817804.2,113233978.0,578588097.0,73375100.6,66398103.7,58987181.4,44110810.0,26096855.5,26717318.0,26153280.3,24942903.4,60361619.4,71445022.8,48354507.9,40583655.9,22253593.5,39991503.9,55570525.9,20044424.2,39460528.8,9551548.9,4440172.1,1950956.5,,,,,,,,,,,,,,,,,,,,,,,,,,,,,,,,,
ASM,American Samoa,,,,,,,,,,,,,,,,,,,,,,,,,,,,,,,,,,,,,,,,,,,,,,,,,,,,,,,,,,,,,
ATG,Antigua and Barbuda,,,,,,,,,,,,,,,,,,,,,,,,,,,,,,,,,,,,,,,,,,,,,,,,,,,,,,,,,,,,,
AUS,Australia,,,,,,,,,,,,,,,,,,,,,,,,,,,,,,,,,,,,,,,,,,,,,,,,,,,,,,,,,,,,,
AUT,Austria,,,,,,,,,,,,,,,,,,,,,,,,,,,,,,,,,,,,,,,,,,,,,,,,,,,,,,,,,,,,,
AZE,Azerbaijan,,1630009674.4,2085879155.8,1587786136.6,994175642.7,791077264.9,692384530.0,842284862.6,375218477.7,337512805.6,298423678.7,267912045.8,228186733.2,136325980.7,95925797.1,74199345.6,69446917.8,80354133.0,64170398.2,66737269.6,46407004.2,24758488.6,11477492.7,69255483.1,4323000.0,8692412.0,,,,,,,,,,,,,,,,,,,,,,,,,,,,,,,,,,,
BDI,Burundi,,23110525.5,11573898.6,18389948.1,15275752.7,9411696.8,13489388.6,21452457.1,13210996.4,7849107.9,3860714.7,12090253.0,18691266.8,16950619.8,18728233.3,39107738.6,58983490.7,28031461.6,18603867.0,16659999.6,13927380.3,20461455.2,20936184.0,21153413.5,21595666.6,28749791.3,34148024.2,30883404.6,35646319.5,37522340.8,39711078.0,38641612.9,40285899.7,39701962.7,28712881.1,21166641.7,15806523.4,6854209.7,5558152.9,5278400.1,6170308.2,4199390.5,2859292.5,3029558.2,2778841.7,2017139.3,934315.1,857296.5,1906928.3,555789.4,635280.6,,,,,,,,,,
BEL,Belgium,,,,,,,,,,,,,,,,,,,,,,,,,,,,,,,,,,,,,,,,,,,,,,,,,,,,,,,,,,,,,
BEN,Benin,,492339221.1,209721972.8,86766232.9,88519732.5,69327300.4,71838523.2,81381909.5,55942395.6,42766781.1,38742071.1,43483892.7,26503283.3,29245090.2,39847297.4,38776325.5,31715404.9,26540226.6,42383112.5,33850378.0,59323080.7,54144549.6,48064204.8,42771222.6,39507425.4,43806501.4,37259742.3,29888568.2,25605546.9,27596123.7,31485725.1,19272467.4,17848822.6,29051249.9,51693646.9,41236553.0,39384292.0,25519233.1,14550764.1,10036013.4,8733234.6,6488904.0,5163705.4,3887225.5,4300511.7,6089263.8,6234698.3,2314021.5,2980974.0,3681838.0,1746726.1,,,,,,,,,,
BFA,Burkina Faso,,122683247.6,108216882.0,109814508.8,101030351.7,92273077.7,81459121.2,70798343.4,63853576.6,63486273.2,47646335.6,43123988.8,41070452.7,36735221.0,42539153.8,40825580.8,48376752.1,42539803.2,33461720.4,28163047.7,38208096.1,55558353.4,47913999.4,46639891.5,45223980.2,46363907.9,41694536.0,35865411.2,28691263.2,40164592.0,28082026.8,31479686.8,34786654.3,28572811.3,30564310.5,24789918.2,18149356.9,15088284.8,15210241.5,13692966.1,16894671.6,9172257.5,7179328.8,5480935.4,4680948.5,5235909.1,3589389.1,3093171.7,2053218.4,2096983.6,2118275.8,,,,,,,,,,
BGD,Bangladesh,,1744508771.0,1551931708.8,1351917026.6,1120615616.6,1173501995.4,1524233826.4,1482144074.2,1216708937.8,1201883129.5,918757529.9,896417881.2,834070209.6,909240228.3,650067445.1,773693795.3,627199811.0,571263486.9,604603723.2,582951423.4,654049759.7,575368714.7,509352086.0,547247073.1,555815697.6,678116158.6,469496820.6,412849092.9,423590067.1,418726248.3,479062821.7,334258099.6,350608635.1,298817095.2,242249847.3,191287305.8,164747155.4,134611362.2,125970371.2,107541177.1,76089037.5,92616068.8,97363152.3,77719789.9,65656665.9,74956712.3,25586671.3,10213356.9,,,,,,,,,,,,,
BGR,Bulgaria,,532326455.5,569333770.4,1659256896.2,521191392.7,399413334.9,428452499.8,1891224285.4,429626264.6,450460380.6,447739840.4,612135933.2,1025270513.9,703463982.7,799035530.4,2088390994.3,1422835253.2,663307134.5,582483301.8,826950953.5,718749310.3,644373587.9,835339203.7,802611147.2,933812614.2,820266067.6,562666047.4,271957244.4,299883239.1,220444650.6,1316477629.1,2528346301.2,2311320336.3,1977166345.2,1550456934.9,1175227918.3,457895718.7,300383699.2,158586555.2,68070510.3,,,,,,,,,,,,,,,,,,,,,
BHR,Bahrain,,,,,,,,,,,,,,,,,,,,,,,,,,,,,,,,,,,,,,,,,,,,,,,,,,,,,,,,,,,,,
BHS,Bahamas,,,,,,,,,,,,,,,,,,,,,,,,,,,,,,,,,,,,,,,,,,,,,,,,,,,,,,,,,,,,,
BIH,Bosnia and Herzegovina,,463344070.9,418230970.2,367064481.8,331747364.1,397435281.8,308481377.3,258253457.7,232554895.9,237052945.7,200707687.8,173422443.3,170802540.5,149123478.0,127972736.2,107996591.7,97594786.2,95366616.2,106296641.9,257127529.3,258802712.9,142922688.9,,,,,,,,,,,,,,,,,,,,,,,,,,,,,,,,,,,,,,,
BLR,Belarus,,3578202616.3,4477362113.3,2548290718.7,3058842742.9,3263621234.9,2803175524.3,1667162656.6,3385331755.2,1778800672.8,590689334.3,573029186.9,365087542.8,302061842.7,216141404.1,216035632.7,215504002.4,169693347.1,159888546.1,189264787.6,171960976.4,130705849.8,100891055.1,121809176.1,96364614.9,166754502.0,109530495.1,12572696.0,,,,,,,,,,,,,,,,,,,,,,,,,,,,,,,,,
BLZ,Belize,,93681434.5,85564954.5,85989850.2,84835163.3,76991179.9,74327322.7,111067467.6,93708991.0,88545152.5,96358523.9,96001675.0,101011993.2,649104737.8,137172355.5,228321163.2,326922583.5,151146860.8,186529971.8,94138290.8,72789784.0,43152335.3,40149970.7,34821552.9,38427057.9,35257275.0,23903387.2,17279735.5,15727243.5,15504261.3,14656964.8,12241163.0,12340987.5,11947069.4,12994263.5,15954169.8,6537180.3,6742906.5,5701698.7,3281208.0,1468268.5,798895.8,440246.3,406719.3,356698.7,443591.8,433044.3,483172.7,40025.7,15215.7,10800.0,,,,,,,,,,
BMU,Bermuda,,,,,,,,,,,,,,,,,,,,,,,,,,,,,,,,,,,,,,,,,,,,,,,,,,,,,,,,,,,,,
BOL,Bolivia,,782427352.2,675767479.0,581291313.2,465022234.0,526512100.6,370843990.2,284840262.2,442629627.0,231196227.6,300631686.4,268315767.8,474909327.6,269462261.6,313003054.9,285275152.2,261666188.5,267590034.1,220085211.2,246768327.6,270512258.5,246929804.6,348515756.2,323914341.2,309995434.8,297554882.9,293223364.0,280909874.1,230215771.5,226625460.7,281583301.7,254168216.5,295250274.9,170017938.9,162525885.0,253703256.7,309975340.6,295472634.7,293323985.4,285860415.7,295408814.8,277827067.1,367586554.4,166342830.9,115242516.7,81571461.3,73481373.5,51043024.4,45093541.4,28938574.5,31752863.1,,,,,,,,,,
BRA,Brazil,,41868025696.6,34111555002.7,29913570352.4,24520255935.9,28824791665.4,14893898118.7,20806389972.9,11708582877.1,21297957456.6,14800234705.1,13444232772.6,22409201740.2,21201928120.7,31661188376.7,16181584702.1,20535861959.7,20723994164.9,21884097900.0,15851073136.0,17875038556.8,22012658334.9,17375923673.2,13327444193.9,12999849484.8,13208144323.9,8677053162.2,5328859107.8,5368793372.2,5245379350.9,5759833546.0,9511105410.1,12575785345.9,7869738372.4,7439708741.1,7264029371.4,7808531096.1,7479346198.5,10383594288.8,9292741539.9,8185182953.1,6626528937.1,4621097331.9,2967421352.5,2128530572.8,1842174773.3,1259374350.0,972615572.8,660442362.9,511860792.8,403057413.9,,,,,,,,,,
BRB,Barbados,,,,,,,,,,,,,,,,,,,,,,,,,,,,,,,,,,,,,,,,,,,,,,,,,,,,,,,,,,,,,
BRN,Brunei Darussalam,,,,,,,,,,,,,,,,,,,,,,,,,,,,,,,,,,,,,,,,,,,,,,,,,,,,,,,,,,,,,
BTN,Bhutan,,54330012.6,84812570.4,75533552.0,75836845.9,127392656.0,80308546.0,75430420.2,132723850.5,85284589.7,87390808.9,75494680.6,81494933.0,30821016.2,9305172.1,6629166.3,11911058.1,7147851.7,6448655.7,6265903.2,6542816.9,6919581.8,9175546.3,7102999.1,6914506.6,9802440.4,7528089.8,7024086.0,5852385.8,7167215.6,4984460.3,6363755.4,1312033.6,515456.5,153340.4,28547.2,32808.6,6414.8,3312.8,2359.7,,,,,,,,,,,,,,,,,,,,,
BWA,Botswana,,181087605.4,175176616.4,173207550.8,159786215.7,156533793.3,56718702.3,183770808.8,54827579.0,73332583.2,75501054.3,44992826.2,68584560.1,46546652.8,54738146.7,52188301.7,47670729.5,49490197.8,59769224.3,51117826.8,67370910.0,73037640.9,75847324.4,101800002.3,150827997.5,91195808.9,91715120.2,89095579.2,96472848.7,88156864.5,105084120.1,72427950.2,76150009.5,72714980.4,45284782.5,47253087.6,32074688.8,24831098.0,13795331.6,8753163.6,12639666.2,9275969.5,8187951.6,5881631.1,4286867.7,7063903.9,3280410.0,2457609.6,1637472.8,946473.0,632500.0,,,,,,,,,,
CAF,Central African Republic,,24348695.2,11470684.1,22736406.7,5827128.1,3431511.0,6343865.1,4032648.3,4280587.9,1142796.2,3048798.3,11410307.4,18602037.8,62007377.7,63536851.9,863571.1,7457328.6,124123.3,340189.8,12755171.1,11760670.6,11678623.6,18962687.6,6534485.8,5251122.8,6086562.9,15754981.5,5252885.4,11748135.7,9379427.6,16550768.8,16097912.7,12477889.1,17822708.6,15567268.2,11536763.2,14002689.9,17532829.4,4709021.7,3618411.4,1383238.9,644316.8,3920778.7,4328792.9,2786138.6,5682062.3,4684322.4,4665869.0,1666745.9,2192533.4,3131843.5,,,,,,,,,,
CAN,Canada,,,,,,,,,,,,,,,,,,,,,,,,,,,,,,,,,,,,,,,,,,,,,,,,,,,,,,,,,,,,,
CEB,Central Europe and the Baltics,,,,,,,,,,,,,,,,,,,,,,,,,,,,,,,,,,,,,,,,,,,,,,,,,,,,,,,,,,,,,
CHE,Switzerland,,,,,,,,,,,,,,,,,,,,,,,,,,,,,,,,,,,,,,,,,,,,,,,,,,,,,,,,,,,,,
CHI,Channel Islands,,,,,,,,,,,,,,,,,,,,,,,,,,,,,,,,,,,,,,,,,,,,,,,,,,,,,,,,,,,,,
CHL,Chile,,,,,,,,,,,,,,,,,,,,,,,,,,,,,,,,,,,,,,,,,,,,,,,,,,,,,,,,,,,,,
CHN,China,,29304175713.2,21428139246.3,18797037333.4,18510973074.3,34623668789.8,14710231114.5,12174502302.2,10439524013.6,14139220234.2,13799217739.7,8682643766.1,9428119278.0,8643942065.8,8882772621.7,8900994748.7,7995999068.9,13984203871.6,13019474323.0,13278852808.5,14378572620.3,14504648788.4,12794033883.5,16819237592.2,14892608217.3,13694670786.4,10162721634.6,9346686673.9,7922062657.0,7076217365.8,5852725870.6,4875772041.7,3896257883.2,3080882861.0,2521611452.9,1886472568.8,1898340871.9,1911996018.3,1843189898.6,1722425516.7,,,,,,,,,,,,,,,,,,,,,
CIV,Cote d'Ivoire,,2463257292.9,1107912658.4,1747223053.9,1040551275.0,398074927.0,595498451.3,533153033.1,298567375.3,414642186.4,496704984.0,773820091.3,769533754.8,153057506.4,16299161.4,23533584.7,94891764.9,300696357.0,505107324.2,303050976.9,670723390.0,991783763.6,885798762.7,601310320.4,850139582.3,771065445.8,692854518.4,570883340.2,558991369.2,618101922.2,523996772.5,396115136.0,456832709.8,577267746.5,800587717.3,594524762.2,646106746.0,789905541.7,948177192.2,919104984.5,870122899.1,588306754.2,395373848.3,269165609.1,179987086.4,129862943.4,114466471.3,71505696.1,57610224.7,44765356.8,40193220.5,,,,,,,,,,
CMR,Cameroon,,699776806.1,607832824.2,415017281.9,508710205.7,385453343.8,483166666.0,148094232.1,114851089.6,190291553.7,149118928.0,140724651.9,195987073.0,251490581.2,249139465.1,573468811.4,474301544.6,303676255.6,265852458.9,202060527.7,364453169.6,345638403.4,423155904.6,419806149.3,458236545.3,345202954.9,295671698.0,305419806.8,205320409.4,271654692.1,314514136.0,167262751.0,272275777.0,336008622.9,315546200.6,250893584.9,236289126.2,210915343.4,270455364.7,206839476.5,185853788.1,135775048.1,106756846.9,57188713.7,39343233.8,35939088.3,25300300.9,24462364.2,15256566.6,13001909.8,9041161.5,,,,,,,,,,
COD,"Congo, Dem. Rep.",,1190369844.0,277945568.9,300860155.9,402826791.9,356505091.1,408980785.7,395225605.0,276089225.5,252468852.0,213013960.6,466666028.2,444357525.1,421209233.5,275802798.7,208514876.5,126143787.4,140603026.4,412005212.0,0.0,0.0,0.0,,,117594.6,,854941.4,11814738.1,55663826.0,97715423.1,137167810.9,191529450.5,177426234.7,195017116.5,238823733.0,300330148.1,286692536.0,178441788.9,128307138.7,208847481.1,396583113.6,179277070.5,143200731.8,117369654.7,88941917.8,152012632.5,187423536.9,97787924.8,61336160.5,37900324.2,34347450.9,,,,,,,,,,
COG,"Congo, Rep.",,492080350.6,380015057.4,323063677.4,291826343.2,371559895.8,453876590.7,433893690.3,166244041.6,134953051.2,139832948.2,176900243.3,164173211.0,102873483.7,80483744.7,99359368.1,198647465.4,56671834.7,15216839.1,82113160.2,13661854.6,1221044.9,18099460.0,116836886.9,345407241.5,147808430.6,532928093.9,127266022.1,149615801.0,276264760.5,463485129.9,300885224.8,384671842.2,396254603.0,313677201.2,385249236.0,342153229.7,314889646.6,221029722.9,202557915.0,70660844.4,74401549.7,20433591.9,33789112.8,23345598.9,29101668.6,18316324.3,11976266.7,7596471.7,8554094.9,8825881.4,,,,,,,,,,
COL,Colombia,,8459265146.4,10335211174.5,10178966474.5,5858551870.4,4857425625.2,5232640628.4,4289845754.9,5049445467.8,4432212513.6,4439643161.5,3784572012.1,4310694648.7,4806600322.5,5118044706.4,6699750417.4,3735277474.2,5555794742.8,4897194367.2,4433822045.6,3517207499.0,4797778953.1,2917543051.6,2746708265.5,2886643964.2,3186366698.9,3317527681.4,2812063787.7,3455842211.1,3113664797.3,3116020384.2,2934400254.3,2799704505.6,2374443039.4,1833479630.4,1423024476.7,1115143120.1,937630266.3,900102955.6,696942397.4,550351858.6,655430694.3,406080434.3,332852172.0,286278659.6,252649590.7,311115630.8,221755681.2,168844911.6,150020031.6,143681084.3,,,,,,,,,,
COM,Comoros,,3871512.7,4432387.0,2009427.8,4586950.3,7106976.0,776282.1,574292.6,7776793.3,3926713.9,4255323.8,10072429.5,12310401.1,25950739.0,3489564.4,3849105.1,3011406.3,2581916.9,4223168.5,1968367.1,2008548.5,2906849.9,2070399.9,2217422.8,1357383.6,862068.9,2735307.6,2115296.4,5665708.8,8126105.2,959305.0,928968.2,534050.7,1129669.7,1872357.6,1881886.5,2491052.9,1406411.5,678681.9,496487.9,303882.5,248305.5,183904.2,362481.3,529168.1,525249.4,156640.9,119514.7,75376.2,58782.8,62519.7,,,,,,,,,,
CPV,Cabo Verde,,61322430.4,55971219.6,50695857.9,43702343.7,41509611.9,42241992.9,37229170.3,33080440.6,35056595.7,32713922.6,31309584.4,30504091.0,29202172.2,31480733.4,35633908.8,23988572.0,19009809.9,22886487.1,13689727.1,16126554.6,19823670.2,19503039.7,14576032.2,7774308.2,8990449.6,9173993.0,6520806.9,10479069.4,7835477.4,5621384.1,6456974.7,7800349.2,7784717.4,4689991.1,4720433.2,5241449.1,2954345.3,1456523.5,306715.9,,,,,,,,,,,,,,,,,,,,,
CRI,Costa Rica,,1747385978.4,1584222393.4,1122673046.6,1044177589.8,1141253200.1,1142996964.8,1378856629.3,944380233.2,841049048.0,554539698.9,791565696.3,1094733465.4,381504160.7,371212353.9,470493531.1,611598816.3,738439081.2,605651411.2,625815271.8,565603451.4,488445962.3,480910531.1,512402770.5,523760108.4,545522644.0,402419079.8,454470495.1,484835962.4,352128192.6,444730229.3,285606061.2,286222036.6,203374759.6,407844753.6,475533611.9,344863975.4,629334127.7,152313173.9,214239569.9,221743393.0,270318441.2,253007755.6,98412825.8,77258109.5,70793561.6,57016644.1,47926341.9,37791969.3,32154995.7,30589445.7,,,,,,,,,,
CSS,Caribbean small states,,,,,,,,,,,,,,,,,,,,,,,,,,,,,,,,,,,,,,,,,,,,,,,,,,,,,,,,,,,,,
CUB,Cuba,,,,,,,,,,,,,,,,,,,,,,,,,,,,,,,,,,,,,,,,,,,,,,,,,,,,,,,,,,,,,
CUW,Curacao,,,,,,,,,,,,,,,,,,,,,,,,,,,,,,,,,,,,,,,,,,,,,,,,,,,,,,,,,,,,,
CYM,Cayman Islands,,,,,,,,,,,,,,,,,,,,,,,,,,,,,,,,,,,,,,,,,,,,,,,,,,,,,,,,,,,,,
CYP,Cyprus,,,,,,,,,,,,,,,,,,,,,,,,,,,,,,,,,,,,,,,,,,,,,,,,,,,,,,,,,,,,,
CZE,Czech Republic,,,,,,,,,,,,,,,,,,,,,,,,,,,,,,,,,,,,,,,,,,,,,,,,,,,,,,,,,,,,,
DEU,Germany,,,,,,,,,,,,,,,,,,,,,,,,,,,,,,,,,,,,,,,,,,,,,,,,,,,,,,,,,,,,,
DJI,Djibouti,,63897949.1,433619520.0,60751910.7,56236610.8,42644109.7,35918303.8,40186891.7,39231206.4,35853994.7,30618399.9,28243220.8,25752712.3,23976270.1,21850513.0,14773984.6,17708922.1,14055095.3,9945059.0,8136162.8,10581527.5,8239464.1,4768655.7,6577590.3,11525043.7,11143769.1,10724479.3,8507183.0,10056233.1,10416040.3,11033071.1,11521419.4,13461658.1,12731288.7,7268409.7,4078199.3,4312909.6,4230618.2,3261904.2,3150744.4,3136447.0,2144992.6,1746481.9,1571051.0,1420392.9,857366.8,472348.7,433944.7,258138.5,200367.4,134105.0,,,,,,,,,,
DMA,Dominica,,25061360.4,27042075.7,27504494.0,25347652.7,21149889.1,18740417.5,16907069.4,16795331.1,14753235.7,15234995.3,20419924.9,18369520.5,16554659.2,17267181.8,15392587.0,15875407.6,14447374.2,12193405.7,16775387.5,9912633.7,10037101.7,9951852.2,9481089.6,5282798.0,5765497.1,6766951.1,6608138.8,5068095.3,4927051.0,4492210.3,4392936.0,3747714.7,3249391.8,2784092.0,1864623.0,1318808.4,539109.2,917781.1,607642.3,,,,,,,,,,,,,,,,,,,,,
DNK,Denmark,,,,,,,,,,,,,,,,,,,,,,,,,,,,,,,,,,,,,,,,,,,,,,,,,,,,,,,,,,,,,
DOM,Dominican Republic,,2234901058.6,1894948818.4,1523660522.6,1783271237.2,3531428260.9,1799853944.7,1416095410.3,1072601880.2,1261314934.6,1134565878.9,1220313987.8,1162238582.7,1220624939.5,1191523710.2,673752690.9,757787152.3,661597441.8,571796412.5,576785364.4,475028775.7,339461422.7,319447205.3,367471352.3,345545449.3,334379508.1,457536287.6,273144976.7,294692128.2,182865056.1,145460550.0,188597419.2,245120058.2,186236819.5,278265181.9,206740796.5,169533482.2,226119761.5,260750539.1,233909776.1,158474469.1,251019450.4,92565318.8,73837933.5,59975414.6,53005000.0,36672000.0,32515000.0,19029000.0,20032000.0,13161000.0,,,,,,,,,,
DZA,Algeria,,115525800.9,147482494.0,166253005.3,165886105.6,187944391.8,238547762.6,301282378.8,663055159.8,472801450.0,388279985.7,462769077.3,1021892868.9,751141705.1,13196615630.3,5082664547.1,5103103560.9,3824881075.0,3753167766.7,4147311295.1,4271461974.4,4748548109.4,4582720784.4,3962172418.8,3989434277.5,3988710799.6,4856833678.5,8689219623.0,8897219803.8,9013037787.5,8567559514.0,6859095054.7,6278599597.2,5390584443.2,5130007337.4,4874362397.6,4976049503.7,4587105713.8,4379465817.3,3912888296.5,3968077201.0,2816039955.2,1517452105.3,1062673080.8,787355802.0,469065617.1,711331756.1,301617975.1,190050025.0,69121447.1,44711008.1,,,,,,,,,,
EAP,East Asia & Pacific (excluding high income),,64930042640.3,51587916636.6,48289319934.5,46914677266.3,60000729582.4,53757854720.5,36361939899.5,30711236611.0,35610719718.4,37984589898.1,28123123768.4,29547260530.1,28066637753.5,30733958600.9,27070375090.2,31138869793.5,35733591901.4,34121329300.0,32011459332.5,32572207462.6,33823284348.2,27144608791.5,32323544946.3,33718474483.2,31232523172.6,26159753475.9,25439309346.5,22600220277.6,19806323710.5,19995949296.1,17908010253.3,16574233254.4,13436079564.3,11411014209.1,8962908353.2,7879450202.1,6877860014.0,6188355186.2,5504389801.9,3931931409.1,3439707303.7,2982096831.7,1783976228.3,1185193177.9,903744600.0,613687999.4,564036879.3,358812040.2,270228892.8,247675303.1,,,,,,,,,,
EAR,Early-demographic dividend,,,,,,,,,,,,,,,,,,,,,,,,,,,,,,,,,,,,,,,,,,,,,,,,,,,,,,,,,,,,,
EAS,East Asia & Pacific,,,,,,,,,,,,,,,,,,,,,,,,,,,,,,,,,,,,,,,,,,,,,,,,,,,,,,,,,,,,,
ECA,Europe & Central Asia (excluding high income),,77224726617.1,98506112121.2,61789072279.4,56938241614.4,80226478609.1,74235318194.2,49424510684.9,37903231363.3,43625880153.3,48604711335.6,39943825466.9,51930528188.9,34210373961.5,52418125245.9,47392376318.4,28590371456.8,27760172362.0,22615831349.4,24975106392.7,19241691691.8,16739209494.1,21597858091.9,18139445890.7,17932325417.1,17707447730.2,12339890207.0,9554442181.4,9929691432.1,22008969187.9,21047255372.9,18369629898.1,17794338139.3,16499109737.5,14410503513.5,10732559726.1,4228943115.6,3839749955.5,3727652335.4,2964027108.1,1945195752.6,1505351277.1,1070630069.4,822861507.2,667943538.3,725907864.4,646406572.8,524852984.1,475595297.7,385566508.1,397243215.2,,,,,,,,,,
ECS,Europe & Central Asia,,,,,,,,,,,,,,,,,,,,,,,,,,,,,,,,,,,,,,,,,,,,,,,,,,,,,,,,,,,,,
ECU,Ecuador,,6304710421.8,5440338094.7,4659322264.0,3059566666.7,3173390258.1,2031547143.3,1850508832.1,1714916710.0,1429866819.0,967582417.7,7018424906.3,1744227551.1,1960063117.7,2524747831.1,1717048088.4,2047836462.6,1446202105.5,1751833344.2,1451571269.4,2343793783.4,1546325666.3,1665272369.8,2026971864.2,1254474675.5,1498187641.3,866961331.1,760542290.9,814995380.8,933949150.0,881661347.8,827705665.5,824959662.0,604085987.2,1003747654.4,954345483.8,1015717012.3,545497928.6,1114857144.2,930462519.3,567423193.1,955041877.4,214432273.8,123933861.7,87239737.0,55053453.2,97962265.5,49706169.3,40819786.9,35923075.9,26710557.9,,,,,,,,,,
EGY,"Egypt, Arab Rep.",,7847015620.5,7235952022.1,6139522650.4,6127841212.8,3573351806.8,5850065054.2,3300508584.9,2941640661.9,3553273134.4,2907715989.9,2841465294.2,3164496904.3,2711138749.5,2363333487.3,2193849657.0,1967629191.4,2297416858.6,1881802487.0,1668190193.4,1588537239.3,1639544400.1,1631218192.0,1754068258.1,1907916653.5,2059296435.1,1843970190.4,1865067065.3,2146921222.2,2041766835.2,2489898237.2,2293603320.2,1862680898.5,1057600961.7,2042833703.8,2098586332.8,1598710442.7,1362482513.2,1068673431.1,972294023.6,623482560.7,401606671.2,514226953.7,448553821.1,242180124.0,272018220.3,288231792.6,430851400.0,314712244.1,213159281.0,261283055.5,,,,,,,,,,
EMU,Euro area,,,,,,,,,,,,,,,,,,,,,,,,,,,,,,,,,,,,,,,,,,,,,,,,,,,,,,,,,,,,,
ERI,Eritrea,,21023275.8,27992644.3,26918977.7,26869915.8,32570740.0,44579415.6,86269174.1,92997400.3,21958972.7,26877435.9,21552117.8,15583389.7,5726617.4,12306121.2,20215890.3,18917391.8,10880432.9,8922404.2,6065826.4,2972741.2,3264445.7,3551219.6,504638.3,,150000.0,,,,,,,,,,,,,,,,,,,,,,,,,,,,,,,,,,,
ESP,Spain,,,,,,,,,,,,,,,,,,,,,,,,,,,,,,,,,,,,,,,,,,,,,,,,,,,,,,,,,,,,,
EST,Estonia,,,,,,,,,,,,,,,,,,,,,,,,,,,,,,,,,,,,,,,,,,,,,,,,,,,,,,,,,,,,,
ETH,Ethiopia,,2160586328.3,1578863829.5,1429284095.5,1177595259.3,1006005959.5,750584691.6,653332471.0,428234585.8,341477146.4,174995244.9,94775083.9,102896704.4,125361641.5,130078536.8,79674608.6,84283642.0,82086913.1,72979142.7,169745063.6,123370296.6,144134226.1,113078704.3,98548784.2,346525679.8,152922963.0,107830851.3,89843627.7,104426938.3,124349547.0,200871429.2,269388327.8,280545308.4,217809549.5,176736731.1,110612715.9,87221391.2,72069685.2,56291955.2,44519922.9,34231633.8,28583034.5,27132562.6,25150245.1,24142042.1,25416769.9,21117060.7,22074834.4,21391728.9,20195259.5,21138413.3,,,,,,,,,,
EUU,European Union,,,,,,,,,,,,,,,,,,,,,,,,,,,,,,,,,,,,,,,,,,,,,,,,,,,,,,,,,,,,,
FCS,Fragile and conflict affected situations,,,,,,,,,,,,,,,,,,,,,,,,,,,,,,,,,,,,,,,,,,,,,,,,,,,,,,,,,,,,,
FIN,Finland,,,,,,,,,,,,,,,,,,,,,,,,,,,,,,,,,,,,,,,,,,,,,,,,,,,,,,,,,,,,,
FJI,Fiji,,171223771.5,52923073.2,43231347.2,57021341.2,301256291.7,49671011.7,44464021.9,39313830.0,189770452.5,23515319.1,25860931.7,23959308.8,26260613.2,12279553.7,12475256.0,9857359.0,15146524.6,15923180.0,15333758.5,23239586.9,28734120.8,21784971.1,19444198.3,28698316.5,42505722.7,66274311.6,52874778.2,59449820.9,78566881.3,78613875.7,63132647.3,61608733.5,62676422.8,56522391.3,55805953.7,51004530.7,37507087.6,34154286.9,26080669.6,20695093.7,13858226.1,18336650.2,9721918.6,8491392.5,7336120.4,6871749.3,3449460.5,2396857.5,1481282.6,2723660.0,,,,,,,,,,
FRA,France,,,,,,,,,,,,,,,,,,,,,,,,,,,,,,,,,,,,,,,,,,,,,,,,,,,,,,,,,,,,,
FRO,Faroe Islands,,,,,,,,,,,,,,,,,,,,,,,,,,,,,,,,,,,,,,,,,,,,,,,,,,,,,,,,,,,,,
FSM,"Micronesia, Fed. Sts.",,,,,,,,,,,,,,,,,,,,,,,,,,,,,,,,,,,,,,,,,,,,,,,,,,,,,,,,,,,,,
GAB,Gabon,,638044750.3,689286584.9,617974640.3,366510340.6,467449569.6,519018651.3,1159955559.0,421946122.3,416763163.4,450409254.3,422216325.9,2621354448.0,826302717.7,156504779.3,167588186.2,211661198.7,355739533.0,381652739.8,429084596.7,312050710.5,486047643.7,253981528.8,405928409.8,362912718.4,382264610.6,198025236.0,70233943.1,337930161.4,224738266.4,103681856.2,92079416.4,97344858.0,65058701.7,178222981.9,224715706.7,254277981.4,214549222.0,281920950.3,309455233.7,397668623.2,326491939.7,273530922.7,127521275.9,88032694.5,64373304.3,40731320.5,62596308.3,22364082.0,18397071.2,11889012.0,,,,,,,,,,
GBR,United Kingdom,,,,,,,,,,,,,,,,,,,,,,,,,,,,,,,,,,,,,,,,,,,,,,,,,,,,,,,,,,,,,
GEO,Georgia,,508573800.3,466788476.3,609193886.5,408689496.1,600886128.9,356444396.6,357892857.0,193282803.5,641303379.3,255169470.5,216686022.1,163770005.0,111069118.0,192028683.5,104052797.0,161002441.2,95444218.4,69775050.2,50637589.8,82538125.4,79979866.2,204604082.3,40113764.1,6898953.7,17210000.0,5932793.2,12893507.7,,,,,,,,,,,,,,,,,,,,,,,,,,,,,,,,,
GHA,Ghana,,1698779276.6,2477933860.7,1838656196.2,1422433697.7,882936560.8,705117418.6,603987413.4,420252135.8,304744104.9,265754995.9,220444640.1,202571213.2,200235907.3,255810655.7,277220698.6,229912646.4,223640349.4,179568349.5,205239583.2,374351732.6,390291507.3,384275812.2,340219078.1,306344764.3,253823737.2,242863492.5,198161691.1,207154375.1,167076151.7,192368266.9,206999140.7,203610243.2,156269087.3,120349123.8,95253786.0,88949270.0,110681470.6,71213949.0,69250000.9,107711786.9,73864348.1,67908590.7,37914744.1,51930975.9,54827362.2,27241754.8,23204135.7,14387526.2,28449919.9,26237550.4,,,,,,,,,,
GIB,Gibraltar,,,,,,,,,,,,,,,,,,,,,,,,,,,,,,,,,,,,,,,,,,,,,,,,,,,,,,,,,,,,,
GIN,Guinea,,80317274.9,100202012.6,92062557.1,78722373.7,77917100.5,84892294.0,89602083.7,136370483.8,194159413.3,94620505.2,130632222.1,132952979.4,150103049.4,148717920.3,145851125.5,148769055.9,88299884.0,84161298.2,89250536.3,144216660.5,115610242.1,139125207.9,136910476.4,103339502.1,162818756.9,88305008.7,77096737.2,81429392.1,122916964.3,149379076.8,104139550.9,116944544.3,142596043.8,53016105.9,61506693.8,102088227.3,63885750.5,76400051.2,85530817.1,97763035.9,92524028.1,65481048.1,68532073.8,38235883.5,36138221.0,23249471.4,24990988.2,19785326.2,15934459.2,15401091.0,,,,,,,,,,
GMB,"Gambia, The",,40588728.8,39274534.8,37010882.6,36266579.3,35662588.5,46279971.2,27609775.5,25904883.2,26936380.1,23414141.5,18944398.3,16121043.8,28861164.1,25030975.8,25424559.9,25395382.9,19916281.2,14196244.0,13076753.3,18660224.5,16523660.0,19978866.8,19144371.2,19336981.6,20744053.2,25404776.9,24432687.1,25360509.6,23309738.8,30310269.9,16435739.1,14023771.6,13462727.3,8235757.6,891663.6,4711255.5,6672141.2,10516532.2,2623480.7,772537.4,496739.1,414138.5,638446.9,365117.3,420482.8,417246.4,329233.9,273692.6,192731.4,126900.0,,,,,,,,,,
GNB,Guinea-Bissau,,12364603.4,10479146.5,9870344.5,6642416.7,6190677.9,6167979.0,1892959.6,7265443.6,5434315.5,14064948.1,9838885.4,7558445.6,6933170.2,5793097.4,3018183.0,4311723.3,2663814.1,1583102.1,4022062.7,4184000.0,7506532.5,6047499.6,7138937.3,9515526.1,13949220.1,6990820.8,3143854.2,6228717.6,21632777.7,5743282.1,8734998.5,6224464.7,8184825.9,4606311.4,4865938.2,2447327.8,2312458.1,4163264.1,4110202.9,4055552.8,2465131.3,973639.7,302948.7,20000.0,,,,,,,,,,,,,,,,
GNQ,Equatorial Guinea,,,,,,,,,,,,,,,,,,,,,,,,,,,,,,,,,,,,,,,,,,,,,,,,,,,,,,,,,,,,,
GRC,Greece,,,,,,,,,,,,,,,,,,,,,,,,,,,,,,,,,,,,,,,,,,,,,,,,,,,,,,,,,,,,,
GRD,Grenada,,49297679.4,47971178.4,51141483.5,43048305.2,22269003.3,18039713.1,22058406.2,14112686.0,24663192.4,25640884.1,20012060.0,16979118.1,15340344.2,12191984.8,8981094.1,27406012.4,30240979.6,27341086.7,15979737.9,13521434.6,9590721.6,9702583.6,6919237.1,7547447.8,7470124.9,8140189.4,7692871.1,6118177.0,3613046.0,3281218.5,3482505.6,6021499.7,4911158.3,4243074.7,3349719.4,3505897.8,4099238.5,1290590.6,982216.9,1378140.6,690958.4,1117410.9,622375.5,1482114.3,819361.9,737549.7,655810.4,644305.5,415137.8,259000.0,,,,,,,,,,
GRL,Greenland,,,,,,,,,,,,,,,,,,,,,,,,,,,,,,,,,,,,,,,,,,,,,,,,,,,,,,,,,,,,,
GTM,Guatemala,,802992240.7,609342361.0,833218888.7,705256987.1,637951447.9,591189316.7,870959141.1,548007168.6,887917223.3,547726537.1,527240587.3,516988368.6,609308716.1,472176072.5,402967375.5,488886714.1,410572148.8,365626750.5,347377970.8,305765121.8,305241308.4,294522317.7,303040573.0,322084207.7,310033580.9,276224936.4,256478993.1,468231241.9,290027594.9,197004380.0,269716345.6,328247533.8,324375767.6,319145430.7,268122877.3,204839010.9,154339353.2,110179000.0,66713000.0,52663000.0,44574000.0,34917000.0,24455000.0,23162000.0,19538000.0,32577000.0,24361000.0,45460000.0,30040000.0,28627000.0,,,,,,,,,,
GUM,Guam,,,,,,,,,,,,,,,,,,,,,,,,,,,,,,,,,,,,,,,,,,,,,,,,,,,,,,,,,,,,,
GUY,Guyana,,77051511.2,76956910.5,57735252.4,49702078.0,45603825.0,39475625.7,35206554.2,132704858.9,33132240.4,27135270.4,18550505.1,26369538.0,24992161.8,29242464.8,25293175.1,39976399.5,48009519.5,52835796.4,36855035.4,48438483.9,60896837.8,110207987.5,102436924.8,77876426.1,81930973.4,71237962.5,83368766.2,86366374.6,93008991.3,142141205.5,43395765.6,22854629.4,26207244.3,29491556.9,30110627.7,34957655.6,47033473.3,45386438.7,80406761.5,75438071.2,94724123.2,52059120.1,35072704.6,35448854.9,17037700.3,13983500.7,13112677.3,8797980.1,5005299.9,5639100.0,,,,,,,,,,
HIC,High income,,,,,,,,,,,,,,,,,,,,,,,,,,,,,,,,,,,,,,,,,,,,,,,,,,,,,,,,,,,,,
HKG,"Hong Kong SAR, China",,,,,,,,,,,,,,,,,,,,,,,,,,,,,,,,,,,,,,,,,,,,,,,,,,,,,,,,,,,,,
HND,Honduras,,551635846.4,523744590.4,422660437.8,396214353.2,331416399.4,291801832.3,194350955.5,131543825.1,124926923.5,109299667.3,162764313.5,103395982.7,157757654.5,156305303.3,204390351.5,207534798.6,193361427.4,171909459.9,127364147.6,169811463.3,303758743.1,433552043.7,453249393.1,503591711.3,477424869.9,429368354.4,354238979.2,364581446.8,291390418.8,321405718.3,135488945.0,290038155.4,247368402.9,199291631.1,173159200.2,137631936.1,132536858.5,156832534.9,123753520.8,104295325.5,112995179.3,66559162.0,48437389.0,33976349.0,21510915.4,18563112.0,17539213.0,12941192.3,11824999.9,9149714.3,,,,,,,,,,
HPC,Heavily indebted poor countries (HIPC),,,,,,,,,,,,,,,,,,,,,,,,,,,,,,,,,,,,,,,,,,,,,,,,,,,,,,,,,,,,,
HRV,Croatia,,,,,,,,,,,,,,,,,,,,,,,,,,,,,,,,,,,,,,,,,,,,,,,,,,,,,,,,,,,,,
HTI,Haiti,,9570000.0,8435648.0,10401570.0,86330539.2,34916890.8,24020420.0,12794254.8,5312000.0,5086674.0,130458632.0,41031847.9,57540278.8,45544719.5,50780984.6,50934911.7,90223359.8,37374998.4,16331510.3,22930052.8,34120223.8,35874526.8,32689898.1,33053404.2,25201970.3,66177438.2,3114456.8,3135204.4,3574832.2,17207423.4,17151460.7,29776226.6,28088442.0,27516414.5,18806014.5,22107278.2,20816789.7,17805213.6,19254759.1,25298316.0,25344906.0,17141675.5,23249528.1,23417450.3,11907759.6,8730946.0,7015493.7,6558000.0,4481000.0,5006000.0,4431000.0,,,,,,,,,,
HUN,Hungary,,,,,,,,,,,,,,,,,,,,,,,,,,,,,,,,,,,,,,,,,,,,,,,,,,,,,,,,,,,,,
IBD,IBRD only,,,,,,,,,,,,,,,,,,,,,,,,,,,,,,,,,,,,,,,,,,,,,,,,,,,,,,,,,,,,,
IBT,IDA & IBRD total,,,,,,,,,,,,,,,,,,,,,,,,,,,,,,,,,,,,,,,,,,,,,,,,,,,,,,,,,,,,,
IDA,IDA total,,,,,,,,,,,,,,,,,,,,,,,,,,,,,,,,,,,,,,,,,,,,,,,,,,,,,,,,,,,,,
IDB,IDA blend,,,,,,,,,,,,,,,,,,,,,,,,,,,,,,,,,,,,,,,,,,,,,,,,,,,,,,,,,,,,,
IDN,Indonesia,,21113296340.4,17381116152.7,18344052551.4,15987726300.6,14226803614.4,28346792497.2,11581925284.4,9856515585.0,9568949734.2,11106152440.7,9864655521.3,9497619189.5,10793129775.1,9044610551.5,8177281917.8,10377101984.2,7493183598.1,6568222072.3,6710346368.8,7664955377.6,9250012381.2,7134336148.3,8919014183.0,11749429489.9,9490342798.5,8791971040.3,8921287544.4,8175336275.2,7582428263.9,7394726059.3,7715729246.1,6947881419.9,5677157175.6,4691800272.2,3987616473.8,3228207885.5,2524108008.1,2236153958.1,2039121798.3,1763304639.5,2103723246.7,2064914115.4,1262326981.1,761025453.9,523920155.4,292001763.4,207970230.7,140422680.4,104678707.7,83409136.6,,,,,,,,,,
IDX,IDA only,,,,,,,,,,,,,,,,,,,,,,,,,,,,,,,,,,,,,,,,,,,,,,,,,,,,,,,,,,,,,
IMN,Isle of Man,,,,,,,,,,,,,,,,,,,,,,,,,,,,,,,,,,,,,,,,,,,,,,,,,,,,,,,,,,,,,
IND,India,,16570314215.9,23630713164.6,14135366301.2,22576838518.6,13672400138.4,13490067021.7,10806187977.6,7626471030.4,8033056536.8,6226748157.8,6657761490.9,14971532444.6,10291683841.1,6086325069.0,15491355010.0,9297158987.0,18028058800.9,11860649464.2,8376081933.4,9539389788.7,8003621336.3,10287542704.0,10692986131.7,9698495667.1,10155306476.1,8247666569.2,6524272919.7,5837240779.0,5556471905.2,5498268928.5,4306029885.9,3275116205.2,3020202892.0,3048047051.0,1960257672.5,1522768274.0,1478182732.5,1257549350.5,1166425679.4,1129413616.4,1013791365.2,950857519.3,800261365.7,759130280.8,762148218.9,725153572.6,647263198.4,609650924.6,546182877.2,1124639537.8,,,,,,,,,,
INX,Not classified,,,,,,,,,,,,,,,,,,,,,,,,,,,,,,,,,,,,,,,,,,,,,,,,,,,,,,,,,,,,,
IRL,Ireland,,,,,,,,,,,,,,,,,,,,,,,,,,,,,,,,,,,,,,,,,,,,,,,,,,,,,,,,,,,,,
IRN,"Iran, Islamic Rep.",,108326337.1,155814584.9,409564500.0,2021257479.2,690097556.8,505866141.9,429029882.6,477929027.1,1503956397.9,1667600242.5,2298820607.9,2675815598.3,2523801251.0,2201106799.0,2180158677.5,1796324463.3,1504609395.4,1275848288.1,1086220787.5,2745995323.5,3655225755.9,2532475101.1,6054773158.4,6201539701.4,5228354386.1,2634906431.0,573523978.1,285748924.9,224952866.8,251556954.1,170500439.6,397106638.9,248241545.2,369362382.6,394470289.0,461001052.9,666120310.7,665813279.3,755113186.0,971569910.0,,,,,,,,,,,,,,,,,,,,
IRQ,Iraq,,,,,,,,,,,,,,,,,,,,,,,,,,,,,,,,,,,,,,,,,,,,,,,,,,,,,,,,,,,,,
ISL,Iceland,,,,,,,,,,,,,,,,,,,,,,,,,,,,,,,,,,,,,,,,,,,,,,,,,,,,,,,,,,,,,
ISR,Israel,,,,,,,,,,,,,,,,,,,,,,,,,,,,,,,,,,,,,,,,,,,,,,,,,,,,,,,,,,,,,
ITA,Italy,,,,,,,,,,,,,,,,,,,,,,,,,,,,,,,,,,,,,,,,,,,,,,,,,,,,,,,,,,,,,
JAM,Jamaica,,1961942770.8,1046936339.1,1241452138.3,1744548583.1,1133753806.0,922174399.5,774234790.7,1094565657.4,1217963635.6,825457032.2,1249764383.8,948823263.6,1047416199.7,734078542.5,904537479.2,808152777.6,799164256.0,796101881.9,672280934.8,558060398.5,520894356.5,414887100.5,539242633.8,537105938.6,518528786.0,460443273.6,422503794.6,553693330.4,550151753.8,484017150.1,408298546.8,449107692.6,435724031.7,475750292.3,355908468.7,274582291.7,270949842.4,243577942.2,238564050.1,208001992.3,207818948.5,203525086.5,158565175.2,113256798.1,82059750.9,65288176.5,38692373.0,29469707.9,19834637.7,15265808.6,,,,,,,,,,
JOR,Jordan,,2145252616.8,1109785760.2,953716043.0,1862415097.3,1810293721.1,1129791718.1,729097651.0,751024346.3,745283887.1,634006203.6,551831818.2,2612275605.6,637351631.2,548700734.3,501606509.8,574028913.0,1035236020.1,483760184.3,532350408.9,547144218.4,465719012.0,808071171.8,789406813.2,908664323.3,538379012.0,489879671.3,514827547.7,662121779.8,630423012.5,551743068.3,502424669.8,895105761.0,681807529.3,539094139.2,455598172.8,335019713.3,302404188.7,230110857.7,264532212.2,181584515.9,125906028.8,77217004.1,53089604.5,28799407.5,21231356.2,14728100.8,11631348.3,9895843.5,7548379.9,4531784.5,,,,,,,,,,
JPN,Japan,,,,,,,,,,,,,,,,,,,,,,,,,,,,,,,,,,,,,,,,,,,,,,,,,,,,,,,,,,,,,
KAZ,Kazakhstan,,2512258013.8,1482156656.4,1901590536.6,1219412370.1,851986046.7,864451363.4,557439678.5,329767391.1,195254649.5,332388512.8,189613937.5,197096015.3,735453922.3,335220436.8,1235742133.0,876693445.3,466717185.1,872703842.4,499178419.1,451265842.5,628205726.8,397290499.3,315496249.8,245545233.7,194811293.4,47103093.6,7907520.3,21826.4,,,,,,,,,,,,,,,,,,,,,,,,,,,,,,,,
KEN,Kenya,,3962026508.5,2291060115.1,1178345946.9,774011421.1,694455942.6,1249893937.7,470612185.5,493438153.9,386481428.4,350122923.1,344665204.8,380096950.9,414537089.0,391832543.1,502667743.8,303852672.9,510401641.9,424535775.5,354841555.8,442873123.8,509883497.8,489407104.6,477234513.2,643286912.2,700829528.0,711820874.9,409351273.6,412636565.5,521822689.0,507290736.9,428102745.0,452459339.5,417878291.2,358486383.0,344752149.2,305554408.9,291422436.6,307788101.7,272034138.7,231759747.7,137243055.9,131871884.6,63627416.4,54710899.8,43056265.7,37394830.4,33110768.9,26521417.2,30037484.5,30088546.9,,,,,,,,,,
KGZ,Kyrgyz Republic,,177997549.0,155543788.5,132558030.3,133156798.4,117259908.3,99485486.8,77986490.0,73247315.8,84597184.8,61338167.6,57527894.2,52752423.1,40940338.4,34574539.9,28745271.1,26286729.6,27992908.4,45913807.4,50180833.0,39605734.4,17158797.0,40180439.9,29572006.8,43421175.4,56030665.2,13113901.6,351957.6,,,,,,,,,,,,,,,,,,,,,,,,,,,,,,,,,
KHM,Cambodia,,310274923.8,265793839.3,210954472.7,185534845.5,136629170.4,134467508.2,120409580.2,89224251.6,71537103.4,59448052.5,46797545.5,38504228.7,26540824.3,28288161.7,19923011.6,16113849.4,11295086.3,7293994.4,5463409.5,4155492.7,12034424.3,7635444.7,7282482.3,6747805.6,5856000.0,308000.0,12000.0,738000.0,,,,,,,,,,,,,,,,,,,,,,,,,,,,,,,,
KIR,Kiribati,,,,,,,,,,,,,,,,,,,,,,,,,,,,,,,,,,,,,,,,,,,,,,,,,,,,,,,,,,,,,
KNA,St. Kitts and Nevis,,,,,,,,,,,44750000.0,41727000.0,46394000.0,47952000.0,47319000.0,48608000.0,46418000.0,43314000.0,37991000.0,21695000.0,19501000.0,16943000.0,10595000.0,6748000.0,6757000.0,6633000.0,6590000.0,4748000.0,3547000.0,3416000.0,2925000.0,1850000.0,1517000.0,1469000.0,1042000.0,808000.0,678000.0,,,,,,,,,,,,,,,,,,,,,,,,
KOR,"Korea, Rep.",,,,,,,,,,,,,,,,,,,,,,,,,,,,,,,,,,,,,,,,,,,,,,,,,,,,,,,,,,,,,
KWT,Kuwait,,,,,,,,,,,,,,,,,,,,,,,,,,,,,,,,,,,,,,,,,,,,,,,,,,,,,,,,,,,,,
LAC,Latin America & Caribbean (excluding high income),,143739296836.1,117938938716.3,123573108089.6,102002934753.8,94843933534.8,68503551037.0,74999035714.1,76098922972.4,69689719752.9,62883294131.1,62665385972.8,72041862304.5,75133087082.3,94520671416.2,65854862333.3,68935622933.2,71283646598.3,65375461650.0,68059426630.9,72862269232.0,66354501592.7,59510866253.2,65669095790.5,60230046527.1,46779894126.8,34539943013.6,30835269962.2,34224957719.3,28522008282.7,29271434850.5,30372327315.9,35899942568.9,29440089542.6,29591591418.2,29879823963.7,29239796499.5,28513509540.1,30607906858.3,27739824330.3,25139431538.8,23703769421.1,16510626778.9,10397419477.5,7137268719.8,6055941261.1,5050102490.1,4091156171.2,2906808691.0,2408117786.6,2179221048.0,,,,,,,,,,
LAO,Lao PDR,,470436582.8,638274348.5,474382442.1,374289852.0,249027667.6,222442248.3,181347388.9,157819406.7,159010930.7,86689048.5,89523237.6,74181101.0,57266123.2,51093031.1,54811385.8,46048569.0,41424299.1,35619819.8,34267706.9,32222108.9,28621046.2,24111078.7,22195746.0,25251489.9,23444354.2,19745902.7,28244232.4,9407242.9,8335412.2,8422493.8,15631273.9,6871279.5,7086232.1,5420149.2,4664831.8,5654015.3,3723129.3,4434969.8,2197265.8,2420251.4,13330854.7,10427591.8,7197147.5,6289669.6,6110625.1,5659368.2,5168405.2,3434160.6,1914969.9,1581819.6,,,,,,,,,,
LBN,Lebanon,,5058690883.0,4738789899.5,4791316163.2,4345411687.4,3909989235.7,3947984398.0,3403085341.5,3805471009.9,5216126183.2,3882926911.3,4538983531.4,4259690351.1,4185196068.3,4042751206.2,3103612767.5,4067640036.4,2958876284.0,1766481440.1,1194936764.8,1251737105.5,425571328.3,266029287.8,607885057.8,217344615.3,158389915.4,122137236.8,68361639.3,65060006.5,47572157.0,38746701.4,39820050.5,51788451.6,66052257.2,69531811.2,88610662.2,75942185.3,64948963.7,72129152.8,53822240.2,13387476.0,9628863.8,7683379.5,8030942.8,8222086.1,10836620.8,11909594.5,11017458.2,9314889.2,9483351.5,3612040.6,,,,,,,,,,
LBR,Liberia,,15367334.2,23279929.0,7745089.0,4622331.5,5070580.9,14199075.3,6181193.3,4550487.0,2998362.9,4333869.6,16097395.8,106497359.5,641260672.3,48556.5,32501.4,0.0,0.0,19000.0,0.0,0.0,27000.0,38000.0,49000.0,368494.3,,13713667.1,21423481.0,96000.0,16534781.2,1919633.6,2923485.4,19133470.8,12412818.3,28346912.8,18571217.5,19445411.9,19523044.8,32993230.5,25481408.9,37947323.8,74707341.7,26190551.6,26250035.9,21385436.5,32438566.2,19563095.1,17217674.7,16812868.7,16743081.7,17492437.0,,,,,,,,,,
LBY,Libya,,,,,,,,,,,,,,,,,,,,,,,,,,,,,,,,,,,,,,,,,,,,,,,,,,,,,,,,,,,,,
LCA,St. Lucia,,44705546.1,42786933.7,41419404.9,43635819.1,65569121.8,33651062.2,34301592.5,42803034.5,42561035.7,40522295.8,41266970.2,47589610.7,41243024.3,30075091.7,26983910.6,20053424.4,26466251.0,17045798.9,21717578.6,27270175.1,15708405.1,13957517.1,12120818.1,11881155.6,10943244.0,10345381.6,10986936.3,11327882.4,9769620.1,6021579.6,4947399.1,3136456.7,2342115.4,1899678.6,1463626.3,1245310.5,1335616.6,1227892.0,1174761.7,,,,,,,,,,,,,,,,,,,,,
LCN,Latin America & Caribbean,,,,,,,,,,,,,,,,,,,,,,,,,,,,,,,,,,,,,,,,,,,,,,,,,,,,,,,,,,,,,
LDC,Least developed countries: UN classification,,,,,,,,,,,,,,,,,,,,,,,,,,,,,,,,,,,,,,,,,,,,,,,,,,,,,,,,,,,,,
LIC,Low income,,6125697479.2,4392325441.6,3866989450.8,3683070250.9,3749714349.8,3631703723.7,2813046557.4,2255238154.6,2803393604.2,2563894946.4,2665028564.4,2803285962.7,3042352934.2,2538208548.0,2214920913.4,1995279761.6,1725912043.2,1673403074.3,1446953414.2,1508338852.8,1382328866.4,1338688155.3,1549118201.9,1369155289.1,1357652517.8,1168567694.5,1094576521.4,1075115121.4,1549165086.4,2468945488.7,2354018419.4,1982650885.5,1747655115.6,1796897843.3,1513347650.4,2308485080.3,1164293770.6,1276002494.3,1391382840.2,1378564309.7,960934254.4,817652382.8,746637702.3,519746134.6,628702217.7,550578625.2,432558843.5,335708634.5,283140733.7,265724675.0,,,,,,,,,,
LIE,Liechtenstein,,,,,,,,,,,,,,,,,,,,,,,,,,,,,,,,,,,,,,,,,,,,,,,,,,,,,,,,,,,,,
LKA,Sri Lanka,,4965571364.2,4436693602.6,3456235797.9,2110373773.4,2448451543.1,3356643352.4,1324124250.6,1743222918.6,1069091455.7,1177943797.8,1108831845.1,1006843318.7,729189486.7,688690338.2,311249373.0,543996763.8,484613979.9,511904276.4,527916873.8,617581571.3,566544214.0,437542704.5,408161759.9,388425845.0,387832714.2,379564444.0,366044157.9,351489999.4,290439028.7,284891977.9,304990670.5,326038894.6,318242147.4,256806938.2,215024972.5,192711974.3,165408033.4,142980467.6,93860907.8,84469369.0,78105743.8,91235987.4,126167524.2,128842566.9,138474611.6,69025751.7,54704944.5,49705379.9,41035333.9,41545447.0,,,,,,,,,,
LMC,Lower middle income,,90125352837.7,84915463680.9,69661983432.1,71946057348.5,64910795018.7,58546289865.2,53757720757.2,42649295559.0,41324012627.0,39439093234.8,37860249570.7,44022971353.7,39749606188.2,55482727361.9,53738491882.6,42277269569.4,48160227705.7,39806578014.3,36964114471.3,38231310726.7,36217327138.8,37304298785.6,37682092275.8,38159770935.9,38413245086.5,35470686504.0,34672384007.0,34971752893.7,33149629089.4,32311064678.3,26460069833.1,24739867343.1,20943397137.5,21272887992.9,20760300178.4,18429327484.3,17274060079.6,15264856611.8,13611731012.0,12089239150.6,9384592486.4,6927261425.3,5010949666.3,4178520607.2,3507655746.4,3279332762.2,3141782152.7,2187344839.5,1729002491.8,2297523126.2,,,,,,,,,,
LMY,Low & middle income,,373769113901.9,359200979773.9,300500692844.3,277309642916.2,299557716808.8,253055305359.0,210820602099.6,186234338323.4,190034633526.6,185316256429.7,168814960441.7,203440055837.9,180529992160.7,233232691647.7,195797532890.5,170200978768.0,182671748629.5,159739199936.3,160074386476.4,162381212813.6,152027617622.0,145398518321.4,157870547333.4,153876994098.3,135690328252.7,108568512163.7,96720059239.2,98986319474.6,101708427756.7,101939964418.0,92905162879.1,94690085594.6,79805425495.4,76862167930.1,70801085195.8,61063897654.7,56792816990.9,56350757445.4,50868108230.8,44723754432.6,38012481938.2,27370219252.8,18150249678.4,13210341909.8,11396854365.8,9775497432.5,8372226688.399991,6024534790.5,4891183817.9,5203269329.5,,,,,,,,,,
LSO,Lesotho,,61045574.3,58934325.3,49358396.1,54348958.9,51588456.0,40923723.1,39000007.8,34999912.1,33496883.5,27248847.7,32065251.2,32314896.0,95417662.3,44803346.6,78982949.1,52511916.1,64317466.3,64071563.6,64096678.5,56109069.4,48523649.4,46515100.1,43086129.5,34267568.4,37709192.8,27953108.2,32303927.5,33450848.4,26016846.6,22827087.9,21352764.8,22848284.2,13864807.5,13293889.5,17903643.3,13464675.0,20972572.1,9326105.9,4419415.2,4824746.7,2406188.1,1088432.6,457372.4,543801.3,335029.3,284255.7,399169.0,324941.3,294865.6,507700.0,,,,,,,,,,
LTE,Late-demographic dividend,,,,,,,,,,,,,,,,,,,,,,,,,,,,,,,,,,,,,,,,,,,,,,,,,,,,,,,,,,,,,
LTU,Lithuania,,,,,,,,,,,,,,,,,,,,,,,,,,,,,,,,,,,,,,,,,,,,,,,,,,,,,,,,,,,,,
LUX,Luxembourg,,,,,,,,,,,,,,,,,,,,,,,,,,,,,,,,,,,,,,,,,,,,,,,,,,,,,,,,,,,,,
LVA,Latvia,,,,,,,,,,,,,,,,,,,,,,,,,,,,,,,,,,,,,,,,,,,,,,,,,,,,,,,,,,,,,
MAC,"Macao SAR, China",,,,,,,,,,,,,,,,,,,,,,,,,,,,,,,,,,,,,,,,,,,,,,,,,,,,,,,,,,,,,
MAF,St. Martin (French part),,,,,,,,,,,,,,,,,,,,,,,,,,,,,,,,,,,,,,,,,,,,,,,,,,,,,,,,,,,,,
MAR,Morocco,,2941789314.8,2979069643.9,3317878356.9,3031401312.6,2550435387.4,2775326677.1,2734273581.1,2328699403.5,2197541724.5,2093394369.7,1749614901.7,2455749488.7,2421672174.6,2036298189.1,2388358085.6,2608958339.2,3762977404.4,3020084555.2,2490200088.3,2470386715.6,2953656140.2,2699431159.2,2946466019.6,3254289450.4,3598080895.9,3454553519.7,3085513631.4,3681388130.7,2128886646.8,1463505106.6,1686329388.0,1342534215.5,1249150350.4,1247006237.7,1052808521.7,774200208.0,1268495944.1,1446234947.7,1321020870.3,1205021957.4,888484821.6,612396760.1,323596181.2,210739621.7,158726257.0,147995296.4,138565028.5,112690686.3,96015676.5,62421616.4,,,,,,,,,,
MCO,Monaco,,,,,,,,,,,,,,,,,,,,,,,,,,,,,,,,,,,,,,,,,,,,,,,,,,,,,,,,,,,,,
MDA,Moldova,,124255838.4,111251835.7,69495738.3,52237088.9,55561555.8,78345104.1,100460417.9,81664560.1,87421891.4,71378743.6,77132187.4,60328846.6,60941196.2,70440909.8,64405482.1,111459991.0,66671629.9,110840976.8,75883382.0,69766273.2,99110586.5,109924590.5,87008885.1,61854447.0,58242357.6,8595000.0,1034000.0,5000000.0,,,,,,,,,,,,,,,,,,,,,,,,,,,,,,,,
MDG,Madagascar,,96754347.5,100618040.3,114500606.4,96166320.8,120076730.8,75197313.0,58231106.6,59231413.8,41799709.8,53788032.1,41970787.4,25449573.2,18559623.2,57400585.6,66423457.9,74852032.9,64840409.6,58559505.8,62235957.0,102176057.8,140304301.2,109046085.5,193154301.4,61627521.9,39756097.9,50270211.9,59473466.6,73628766.9,115137423.7,154666855.2,168520532.8,158537186.9,187452842.5,138025666.4,94089581.6,72978368.6,56609943.6,84169852.3,69210298.0,68453156.3,33711751.2,18035260.5,136898940.5,10981426.0,64182202.6,85936588.0,84276374.9,73274891.4,67204374.6,61421499.9,,,,,,,,,,
MDV,Maldives,,411487421.3,388464887.9,117420326.6,97643333.0,94935002.9,166183270.9,65144224.1,77192313.5,76757060.7,60089748.5,56476599.8,50467655.5,38678649.7,29279903.5,29163286.7,28197659.7,20767228.5,20934666.8,20373986.3,18657488.2,16735985.7,15508278.9,28245102.0,11513497.6,10674002.1,9338212.1,8087426.9,6768295.8,6844923.1,7327405.0,8632915.7,8578342.3,6446683.7,11196831.3,8515647.9,16081334.6,4263239.1,1565076.8,670227.8,282822.5,77350.4,43378.7,,,,,,,,,,,,,,,,,,
MEA,Middle East & North Africa,,,,,,,,,,,,,,,,,,,,,,,,,,,,,,,,,,,,,,,,,,,,,,,,,,,,,,,,,,,,,
MEX,Mexico,,41991573967.1,30637904439.1,36079459472.9,40683576242.6,26184462074.1,19278041319.2,22498957107.0,37210055015.2,19701066496.6,19800089082.1,17891436782.1,22043438043.1,21477634322.8,38814832589.6,23230257279.2,25138489807.8,22052819386.9,19433520040.0,24453058842.8,24799711661.9,16065377631.9,17622313122.9,28302671879.9,26756347380.8,15487833817.6,11778912835.3,10603845926.4,15322370706.3,9279728892.6,7863499725.7,9513838243.4,9934594243.8,8656482861.7,8628727785.1,10594884830.9,11299119274.8,11448395712.4,9434741231.8,8559254589.5,7910382958.9,10043823992.3,6320652970.4,3570383747.8,2243225976.3,1595582013.5,1201514384.8,1091083206.7,864081543.8,734402396.7,705116726.2,,,,,,,,,,
MHL,Marshall Islands,,,,,,,,,,,,,,,,,,,,,,,,,,,,,,,,,,,,,,,,,,,,,,,,,,,,,,,,,,,,,
MIC,Middle income,,367643416422.7,354808654332.3,296633703393.5,273626572665.3,295808002459.0,249423601635.3,208007555542.2,183979100168.8,187231239922.4,182752361483.3,166149931877.3,200636769875.2,177487639226.5,230694483099.7,193582611977.1,168205699006.4,180945836586.3,158065796862.0,158627433062.2,160872873960.8,150645288755.6,144059830166.1,156321429131.5,152507838809.2,134332675734.9,107399944469.2,95625482717.8,97911204353.2,100159262670.3,99471018929.3,90551144459.7,92707434709.1,78057770379.8,75065270086.8,69287737545.4,58755412574.4,55628523220.3,55074754951.1,49476725390.6,43345190122.9,37051547683.8,26552566870.0,17403611976.1,12690595775.2,10768152148.1,9224918807.3,7939667844.9,5688826156.0,4608043084.2,4937544654.5,,,,,,,,,,
MKD,North Macedonia,,334564760.3,511591857.8,374370588.3,395088448.1,404327441.1,249062433.4,525440512.6,232686138.1,185583471.0,154886271.3,134897203.1,132472603.1,344710976.2,358988696.0,122189401.8,119103149.1,129765441.1,148934984.0,140002062.0,55272075.8,78019534.4,97954369.7,93885410.1,50370885.0,28237236.1,137373322.4,7847000.0,,,,,,,,,,,,,,,,,,,,,,,,,,,,,,,,,
MLI,Mali,,203136010.8,189318473.7,126557924.8,106994176.3,97465197.5,91011795.2,100079620.7,58170884.2,65972579.2,60722865.5,67653681.3,68797981.4,62645104.8,82500148.1,79394769.9,78649394.3,55586593.6,60968391.7,62263025.5,67500722.6,85084595.0,62133916.2,62486914.6,105981582.9,77497602.5,77120008.0,66748549.9,47707103.2,30411887.4,42859485.1,38765298.1,45307925.5,32103309.0,29688388.3,34435768.9,18060883.1,13867347.0,11508170.9,9478646.7,9382405.9,7952674.2,6950583.9,6939752.9,4011415.7,3227422.2,2594165.5,5064987.9,973977.4,803700.4,709813.2,,,,,,,,,,
MLT,Malta,,,,,,,,,,,,,,,,,,,,,,,,,,,,,,,,,,,,,,,,,,,,,,,,,,,,,,,,,,,,,
MMR,Myanmar,,646794859.4,824640957.0,635791183.2,753892125.8,504303358.5,643550560.3,2435618508.8,1169531775.8,227209119.9,243049841.5,110608555.9,87986927.8,76369370.2,53982641.7,23005761.5,20332208.6,18461497.7,16847854.2,14682870.6,18286607.2,99425835.4,97827958.8,126750143.1,172840058.0,263081125.9,168068060.8,118163882.5,55397802.6,85389469.3,58669962.7,186894518.9,107018062.7,165284502.2,223076278.6,176739287.9,160694745.2,152276478.2,122555573.5,142891583.5,111426605.9,96783815.4,47875327.4,34892116.6,36404593.1,36359062.9,31613821.2,46835770.8,24741315.6,22051965.0,18125902.7,,,,,,,,,,
MNA,Middle East & North Africa (excluding high income),,20764131049.1,18714933090.3,18157506644.2,19391788779.7,14703391093.8,16614582968.9,13091281789.7,13388229518.7,16928007998.2,14411981734.8,15149123592.1,18808834310.2,16219646595.7,27557797077.1,17875804390.4,18672578674.7,17507742061.4,14114867862.7,12908612411.0,15121518862.7,15671221856.8,14179799262.2,17900017226.5,18021155947.4,17193481849.8,15067589387.1,16262147137.2,17226960682.0,15715943277.3,15855816677.4,13593518473.2,12351120888.7,10096204004.8,10532039554.5,9986668180.7,10151361382.3,9175177601.2,8737517369.8,8174017755.5,7719635246.8,4842362555.0,3187840626.9,2164006383.9,1498704005.0,1141285686.0,1340625863.7,1030570140.2,772085190.5,503047075.1,476449594.8,,,,,,,,,,
MNE,Montenegro,,549166476.2,693584588.1,292988543.5,463813145.7,475434444.2,270230875.3,351313263.2,252345686.4,201681836.4,92686530.0,51319177.3,52220989.2,139697227.7,40152400.4,,,,,,,,,,,,,,,,,,,,,,,,,,,,,,,,,,,,,,,,,,,,,,
MNG,Mongolia,,471568542.6,873323273.2,285284156.2,196005406.4,156001899.8,161007997.0,133848504.8,89811048.6,74137989.9,141014944.3,87098861.5,64277663.4,45488489.8,40362144.7,31937057.7,26900742.5,277489955.8,44014594.7,37858836.0,31212189.1,16119040.0,28088421.9,61232838.1,42108967.7,41042440.6,43051226.1,22191838.4,65667311.4,,,,,,,,,,,,,,,,,,,,,,,,,,,,,,,,
MNP,Northern Mariana Islands,,,,,,,,,,,,,,,,,,,,,,,,,,,,,,,,,,,,,,,,,,,,,,,,,,,,,,,,,,,,,
MOZ,Mozambique,,746211264.2,485164252.7,410978415.3,403739319.1,425857816.4,269141871.1,187306039.8,97531293.1,81583574.3,93289605.0,41774803.9,34466027.0,25290819.0,36759324.1,41379160.1,36094915.1,48823806.8,38687513.6,48237086.9,54567566.3,66861897.8,65151123.6,86635076.2,101103720.1,141876192.0,108644935.3,110150782.1,73219717.7,71585815.8,51564340.5,56200343.5,51119702.8,38269277.7,93502616.7,52760247.1,16725805.6,,,,,,,,,,,,,,,,,,,,,,,,
MRT,Mauritania,,354818447.2,362154377.6,303957453.8,247517377.0,235642987.0,238494893.0,166535813.6,148242582.3,124186108.0,112245192.2,77017805.5,59150883.3,115619083.1,63321932.7,52231482.1,43967792.5,44253901.5,43523414.2,61000815.5,65510231.2,88222849.5,94106130.7,97472834.6,101779821.3,102035622.9,95472333.8,117821255.6,72289843.3,73376668.5,117564623.4,80068878.6,111426895.6,98277601.2,74311513.8,75579091.1,41797287.3,36877362.9,38293621.2,53868590.1,29813382.6,65910514.9,26149997.9,40953558.9,77412851.4,39600696.0,14041909.6,12693297.8,10875825.9,3658941.7,3529222.0,,,,,,,,,,
MUS,Mauritius,,,,,,,,,,,,,,,,,,,,,,,,,,,,,,,,,,,,,,,,,,,,,,,,,,,,,,,,,,,,,
MWI,Malawi,,80250370.3,54466089.2,48273769.2,49835973.2,45942285.9,41932310.3,35478091.6,24103482.0,21256293.2,19745711.8,37254830.4,31588576.4,31180398.3,49656930.9,59553463.0,49097833.0,32607108.0,27803916.7,40402610.4,50605052.5,48511601.6,59166028.7,63991845.4,68172894.7,104187691.6,72819476.2,70890350.2,80746538.3,100353123.5,101461261.8,56728422.8,57180115.6,66138097.2,102238432.1,76373024.8,69018731.6,54257864.5,63812168.8,88861794.7,68008972.3,44962503.7,37768409.2,22913301.9,18336728.0,17561895.4,14970310.5,11381236.9,8942241.3,7927251.6,6420079.9,,,,,,,,,,
MYS,Malaysia,,,,,,,,,,,,,,,,,,,,,,,,,,,,,,,,,,,,,,,,,,,,,,,,,,,,,,,,,,,,,
NAC,North America,,,,,,,,,,,,,,,,,,,,,,,,,,,,,,,,,,,,,,,,,,,,,,,,,,,,,,,,,,,,,
NAM,Namibia,,,,,,,,,,,,,,,,,,,,,,,,,,,,,,,,,,,,,,,,,,,,,,,,,,,,,,,,,,,,,
NCL,New Caledonia,,,,,,,,,,,,,,,,,,,,,,,,,,,,,,,,,,,,,,,,,,,,,,,,,,,,,,,,,,,,,
NER,Niger,,142600804.3,115095815.6,124521211.7,104039106.7,77555011.1,103340448.8,65092605.5,33943638.1,25876538.0,17434504.5,29138927.4,17316593.8,16139006.9,46350433.8,26067139.1,24082310.7,22656120.7,14165530.5,19540188.8,20122049.0,22115288.8,21447946.5,29675685.9,14474533.5,14152648.7,23369466.5,46460170.5,11998003.6,37690571.9,17442103.1,33114902.2,78002519.4,81269546.7,70456668.5,51792104.9,39751705.2,61479910.4,110955436.3,63005110.8,38921608.4,13090304.2,9293875.4,9143065.9,9174372.7,8109186.4,3086079.8,2615390.4,2349136.9,2181274.1,2399151.4,,,,,,,,,,
NGA,Nigeria,,1390326932.1,1433576566.4,343981136.1,354744103.0,397020447.8,264009952.9,393272037.3,251710245.3,351584895.6,306840267.7,426303505.6,427512564.4,1002007179.5,6700510062.8,8800306824.7,1705135681.4,1627895016.9,1430090085.9,2468039551.1,1729267864.2,974367450.9,1275115636.3,1361418564.0,2152812518.2,1747670393.8,1809673345.8,1428898007.2,2360072768.9,2856327131.1,3285164233.7,2063342334.5,2054690888.8,914108447.1,1670752904.8,3825665434.0,3057491742.7,1877675212.0,1406438334.9,901445497.7,502977021.2,260303107.2,97966660.8,104031601.6,371576536.7,243339816.8,163320098.8,200767228.0,62360202.3,58768727.2,57757804.7,,,,,,,,,,
NIC,Nicaragua,,295866908.3,229030112.5,204757538.1,163294494.2,132736682.3,118913375.9,97835205.0,91899261.6,102746525.6,89346848.4,99487476.9,91456556.9,243838084.9,97901808.0,107810322.3,66278236.4,123579785.6,103326772.2,125388326.2,149840994.0,137725961.7,178075385.9,313816986.9,197734889.2,267595793.5,198109995.5,122992240.4,84373664.2,540689084.6,13919000.0,16741000.0,32857000.0,71528455.9,40319336.9,60805503.2,68810833.0,89638663.6,171581761.3,168948992.5,93394016.4,62648728.6,103535331.5,105872517.2,80990361.2,60167153.0,54232080.6,72916393.9,35717153.2,34803068.3,26219185.8,,,,,,,,,,
NLD,Netherlands,,,,,,,,,,,,,,,,,,,,,,,,,,,,,,,,,,,,,,,,,,,,,,,,,,,,,,,,,,,,,
NOR,Norway,,,,,,,,,,,,,,,,,,,,,,,,,,,,,,,,,,,,,,,,,,,,,,,,,,,,,,,,,,,,,
NPL,Nepal,,245719801.9,214884349.4,208360164.0,205023316.7,197412214.9,206182680.3,200536465.8,207874445.1,188844616.6,180763093.5,171888510.2,159840079.2,142207495.3,134221818.5,115921076.9,115131411.8,109619496.8,96750682.2,88211308.0,95222761.4,99397400.0,80026100.0,83400509.6,68949929.4,74285286.8,71361888.2,63074608.3,61441732.8,54183992.9,51627518.7,49364521.9,41020227.2,28448573.3,22216296.0,13235445.4,9502397.5,7692094.1,5758978.2,4718129.9,3976909.5,3281004.7,2725958.7,2917365.0,1890736.6,1838286.9,946788.9,632292.4,439163.4,359556.8,2711026.3,,,,,,,,,,
NRU,Nauru,,,,,,,,,,,,,,,,,,,,,,,,,,,,,,,,,,,,,,,,,,,,,,,,,,,,,,,,,,,,,
NZL,New Zealand,,,,,,,,,,,,,,,,,,,,,,,,,,,,,,,,,,,,,,,,,,,,,,,,,,,,,,,,,,,,,
OED,OECD members,,,,,,,,,,,,,,,,,,,,,,,,,,,,,,,,,,,,,,,,,,,,,,,,,,,,,,,,,,,,,
OMN,Oman,,,,,,,,,,,,,,,,,,,,,,,,,,,,,,,,,,,,,,,,,,,,,,,,,,,,,,,,,,,,,
OSS,Other small states,,,,,,,,,,,,,,,,,,,,,,,,,,,,,,,,,,,,,,,,,,,,,,,,,,,,,,,,,,,,,
PAK,Pakistan,,8953694374.0,4631661008.9,5917101685.7,3720570516.8,3145535858.6,2470346349.6,2515972174.7,2089437501.8,2101869461.9,2922093968.4,2447544445.9,2202523747.7,1970283394.7,1820197846.1,1745359734.1,3122635183.5,1949420682.4,2115916840.0,2030378585.0,1784967126.9,1704950230.4,1553681609.8,2979583629.5,2272280921.1,2315723766.5,2870708726.9,1903433475.6,1750633090.0,1504234449.1,1360574478.0,1281652894.6,1264323728.7,1125976333.2,1018811786.4,1017374170.0,929299621.9,1102712361.0,588544443.5,564815087.5,591718371.9,513642842.9,380914021.4,328595918.4,283547309.3,256955128.1,202232940.5,190187502.8,182621205.3,171477567.6,226557929.5,,,,,,,,,,
PAN,Panama,,,,,,,,,,,,,,,,,,,,,,,,,,,,,,,,,,,,,,,,,,,,,,,,,,,,,,,,,,,,,
PER,Peru,,2334533114.4,2244532500.1,4714606555.4,1856126634.0,1717671528.3,1887187622.7,3796366215.9,2317018436.0,1892972629.7,4585583413.8,2916650584.2,3802692312.6,7378677503.0,2538583477.4,4440196669.7,2447714821.7,2218320507.7,3099849316.8,1753430548.6,2091658459.9,2005150203.7,1551882380.2,2834614702.0,2398209538.4,904721304.0,943554969.3,1708826588.8,745263194.2,908366919.6,179461034.2,269258610.0,228896776.1,370060856.4,501105617.1,726927099.4,702644489.0,775094984.9,1535242461.3,1911628234.1,1520795110.3,944590414.2,769406210.8,659887421.5,468592532.0,456328287.9,448853188.0,412199551.1,193583790.4,178066790.3,149880396.7,,,,,,,,,,
PHL,Philippines,,6415126949.1,4670483251.4,5261992438.2,6509583050.1,5582892624.7,5149382390.3,5430497389.3,5478150007.4,7737211775.5,9790157098.9,6681956406.0,6457205091.9,5076736591.5,8477626004.1,5762213577.7,6846472375.4,5642871630.6,5524742068.3,5471123496.9,4396663470.3,4260196610.1,3589576658.7,3280058304.2,4038951002.9,4293780603.7,3630164333.8,4254544712.4,3790680280.0,2757969816.4,2896463677.5,2222153511.7,2571238642.0,2334772773.5,1865547180.3,1236183530.9,1152456469.2,1200365270.1,1041311253.0,865586350.9,596241125.7,783724810.7,618711066.1,318001626.6,256136427.4,236164745.1,199102313.7,238958914.9,139432904.8,97283883.5,101130334.3,,,,,,,,,,
PLW,Palau,,,,,,,,,,,,,,,,,,,,,,,,,,,,,,,,,,,,,,,,,,,,,,,,,,,,,,,,,,,,,
PNG,Papua New Guinea,,431747808.3,183321506.5,135855569.5,100225094.9,87353373.5,93871547.4,92661418.3,96171952.8,98495199.8,83788685.0,83225851.1,195176365.1,210753918.0,158310890.0,151988267.2,175594040.1,171494230.6,140366262.7,145710695.5,169403243.9,161070967.9,169882801.6,271679515.6,247434407.8,286319990.1,329945793.5,255680747.1,198678775.6,234125576.0,270289924.9,231341474.5,310940772.6,169486791.6,116803494.7,125277986.4,128572095.6,97987112.7,95775430.8,67229184.8,61216914.9,48992054.5,30632093.4,27079532.5,26333540.6,20159825.0,18294739.6,7511188.2,5078815.2,2301346.9,1355920.0,,,,,,,,,,
POL,Poland,,,,,,,,,,,,,,,,,,,,,,,,,,,,,,,,,,,,,,,,,,,,,,,,,,,,,,,,,,,,,
PRE,Pre-demographic dividend,,,,,,,,,,,,,,,,,,,,,,,,,,,,,,,,,,,,,,,,,,,,,,,,,,,,,,,,,,,,,
PRI,Puerto Rico,,,,,,,,,,,,,,,,,,,,,,,,,,,,,,,,,,,,,,,,,,,,,,,,,,,,,,,,,,,,,
PRK,"Korea, Dem. People's Rep.",,,,,,,,,,,,,,,,,,,,,,,,,,,,,,,,,,,,,,,,,,,,,,,,,,,,,,,,,,,,,
PRT,Portugal,,,,,,,,,,,,,,,,,,,,,,,,,,,,,,,,,,,,,,,,,,,,,,,,,,,,,,,,,,,,,
PRY,Paraguay,,536952499.3,462197420.1,419749391.6,411423725.2,317925011.1,273590892.3,275506846.6,301332651.5,310785652.0,304957748.8,360312863.5,334064406.4,310146352.7,325097142.0,316594640.9,353520353.9,217396389.4,204354157.1,230817360.1,213551696.2,197987723.3,180302529.5,186474261.7,193649291.4,250803045.7,232464856.4,276648210.4,614489512.2,244728949.9,200269461.6,147673394.1,304235400.1,226289724.0,210396620.5,158381514.2,121856567.2,92976869.5,89914108.7,78432120.3,88100123.9,62962032.1,45503758.8,33180293.6,25509563.9,27276295.2,21906782.8,20275438.0,19123735.5,15648794.3,13104426.9,,,,,,,,,,
PSE,West Bank and Gaza,,,,,,,,,,,,,,,,,,,,,,,,,,,,,,,,,,,,,,,,,,,,,,,,,,,,,,,,,,,,,
PSS,Pacific island small states,,,,,,,,,,,,,,,,,,,,,,,,,,,,,,,,,,,,,,,,,,,,,,,,,,,,,,,,,,,,,
PST,Post-demographic dividend,,,,,,,,,,,,,,,,,,,,,,,,,,,,,,,,,,,,,,,,,,,,,,,,,,,,,,,,,,,,,
PYF,French Polynesia,,,,,,,,,,,,,,,,,,,,,,,,,,,,,,,,,,,,,,,,,,,,,,,,,,,,,,,,,,,,,
QAT,Qatar,,,,,,,,,,,,,,,,,,,,,,,,,,,,,,,,,,,,,,,,,,,,,,,,,,,,,,,,,,,,,
ROU,Romania,,,,,,,,,,,,,,,,,,,,,,,,,,,,,,,,,,,,,,,,,,,,,,,,,,,,,,,,,,,,,
RUS,Russian Federation,,38411092267.6,61967692851.2,27105512840.2,30371024631.7,44157668982.6,50023002737.8,22389706161.0,16479948905.1,23931688644.5,31710888763.2,21674690106.9,32961002344.5,16139964210.8,35871502713.8,27671366092.1,10327831380.6,10636392615.3,7818888030.4,9146893441.9,4713058530.2,4248499370.5,7161403348.2,5955740166.0,6323332854.7,5864183679.2,3294589010.9,2103736878.8,1358414235.8,,,,,,,,,,,,,,,,,,,,,,,,,,,,,,,,
RWA,Rwanda,,87136274.6,80288968.2,73330491.3,64754950.2,56573861.0,52880983.8,37400517.2,20591411.3,18308723.6,13932398.1,11018440.3,14142124.9,22639407.7,25634552.0,23331358.7,25141819.1,19717960.4,15200648.9,16459305.5,21577212.4,20236285.3,14756793.5,17314481.0,15185922.5,19693938.0,3217524.2,15445150.6,15103275.0,17644837.4,15023679.5,21449894.2,17012554.3,18611205.4,15483413.2,13578002.2,9780619.8,7438344.2,4573937.8,4346731.1,4247182.7,1947620.5,1775070.5,1321602.3,958595.4,413915.7,471540.6,140749.0,480187.8,410318.0,344951.0,,,,,,,,,,
SAS,South Asia,,32978406002.5,34971836353.3,25292532732.7,29937171803.9,20887045825.5,21315213340.0,16481222949.6,13103542877.5,12766534755.8,11582462104.8,11424085453.7,19314064388.3,14116618162.9,9427346844.7,18481537442.3,13753316874.9,21203407527.1,15225562308.5,11632180013.1,12716411313.1,10973537462.9,12892829029.5,14746727204.9,13002396064.4,13631740844.7,12055664750.8,9284785767.3,8437016349.9,7838067762.9,7687554590.1,6292705743.6,5268497066.7,4799980181.3,4600747090.6,3406551761.3,2835786566.3,2893359237.1,2122713000.6,1938374569.2,1885950126.8,1701514375.8,1523140017.8,1335685732.5,1239067559.5,1234372957.8,1022945725.0,903001295.0,842416673.2,759055335.5,1395453940.6,,,,,,,,,,
SAU,Saudi Arabia,,,,,,,,,,,,,,,,,,,,,,,,,,,,,,,,,,,,,,,,,,,,,,,,,,,,,,,,,,,,,
SDN,Sudan,,178771527.8,208574548.0,225611447.5,282457419.6,514163476.4,248576897.7,286523274.2,353779342.3,520106304.8,484001216.7,479643762.6,288586691.6,306638950.2,263225473.3,358383507.7,283555429.7,246624505.1,118180365.0,180149177.0,184980381.0,12373415.1,2971086.9,298874.4,259869.5,16936282.2,2931549.2,17225585.7,24824194.7,22157907.5,23242735.4,56582221.1,78296901.3,62569917.1,198294582.9,89151885.5,63796456.9,77746916.3,115280022.6,147389946.0,102304852.4,72822504.4,101516425.1,80922713.6,103132242.2,109578009.4,59724542.6,54594378.9,48777377.3,39081467.7,32999616.6,,,,,,,,,,
SEN,Senegal,,905827213.6,608307550.8,439512426.3,266315975.9,239073616.7,228091558.8,252325207.6,227998219.2,246908527.8,148126363.3,137959662.3,123380338.0,106405354.9,157842126.2,127760809.8,278620371.7,190000227.5,178486597.6,160464078.7,182318030.3,181496187.1,228514825.3,168348289.1,231882526.8,218874306.3,179914978.2,77143757.3,130513419.4,219509577.6,210913777.6,270958991.6,271671099.9,269557816.7,192935019.6,97689900.7,100948869.5,68999091.0,65101456.8,125511301.7,218667249.8,134538989.4,102550950.0,57020664.6,42816140.9,39531332.4,33938983.2,29471426.4,13200236.0,12132350.3,9126338.9,,,,,,,,,,
SGP,Singapore,,,,,,,,,,,,,,,,,,,,,,,,,,,,,,,,,,,,,,,,,,,,,,,,,,,,,,,,,,,,,
SLB,Solomon Islands,,6224830.6,5925675.6,6232841.2,7612567.3,6451181.0,7804129.8,7778565.7,8055246.3,8263466.3,10329622.2,8316871.2,15096060.1,11476601.9,4076146.8,7424494.4,4798000.0,5325177.9,1462413.9,1748787.9,3569631.6,5730350.1,6483154.0,1059200.3,4637489.8,2709571.9,8125872.8,9748977.5,6722012.3,11302205.8,10112887.1,9276198.2,6528360.3,3252851.2,2706895.2,2621848.0,1749014.9,155132.8,98179.7,101167.4,45283.9,24850.9,14517.0,,,,,,,,,,,,,,,,,,
SLE,Sierra Leone,,40295223.5,33700847.8,37293969.7,31944673.3,21466521.2,22362752.7,16879196.9,13407910.5,13031708.6,8802201.6,7071712.3,5319829.4,9410776.1,18147560.3,13860960.1,18558195.4,15616329.2,13143053.1,17331195.3,18519447.6,15301938.0,24416889.0,14239098.3,60316606.0,77260307.5,40251036.4,21322982.5,26120058.1,7362411.7,16454095.4,5748976.6,17455158.6,13699486.7,14071132.6,15486012.7,27590282.9,25402983.8,30135703.1,61303655.1,57267428.4,44574303.3,37681385.3,17120175.5,22005339.5,15538366.2,14473991.9,12851196.7,10688502.3,8542674.2,13058903.0,,,,,,,,,,
SLV,El Salvador,,1862643969.3,1025560505.4,981859566.4,969631503.1,899602855.9,874872410.4,836392103.2,862791836.9,1005584122.2,835711526.8,934036604.7,719940929.5,715570344.6,820274982.4,527894690.0,574944023.2,499280437.4,380318938.4,308920411.6,263652870.0,253603470.8,375091620.7,237979223.4,283469661.8,264234086.9,337707328.2,295075867.4,228927765.2,237928548.0,186077990.8,141146912.3,173001573.2,200846164.2,196477253.2,209724745.4,208083043.3,162285824.6,73444722.6,52960581.7,47053967.8,38932735.7,35644010.7,74571923.6,40130843.7,57562805.3,27102234.4,23157165.5,11988259.8,17084486.8,10968035.3,,,,,,,,,,
SMR,San Marino,,,,,,,,,,,,,,,,,,,,,,,,,,,,,,,,,,,,,,,,,,,,,,,,,,,,,,,,,,,,,
SOM,Somalia,,0.0,0.0,0.0,0.0,0.0,0.0,0.0,,,0.0,0.0,0.0,0.0,0.0,0.0,0.0,0.0,0.0,0.0,0.0,0.0,,,2787427.2,,,,,41056.4,6716272.4,17228090.0,3957774.2,7662464.9,6808015.0,5011789.3,8286670.5,16900926.0,11242140.9,45941445.9,8967771.0,4014542.8,4149260.1,3281650.8,2480466.9,3445763.4,3057490.3,2597480.0,1925415.1,1151798.8,867721.6,,,,,,,,,,
SRB,Serbia,,3258187300.8,3047842762.3,2771775611.8,1618161870.4,1420900086.4,1545359316.6,1765405407.9,1051542353.4,798014249.4,671481199.2,506043969.3,535211174.0,598739308.6,542246266.3,285384141.9,218625279.6,166826798.2,93469327.0,46478589.3,,,,,,4000.0,,14297000.0,787175866.1,2339056402.8,2715428316.5,2128791560.7,1912984721.2,1992124268.6,2276185392.9,1354789950.6,964083596.7,814930292.6,912587375.1,802255557.3,619537281.9,571461138.7,405146793.0,395276427.5,311656614.3,461605784.3,404965085.1,318503678.8,255615749.7,224008706.5,252533018.5,,,,,,,,,,
SSA,Sub-Saharan Africa (excluding high income),,34132510756.8,37481242856.2,23399153163.9,22124828698.1,28896138163.2,18628785098.4,20462611061.8,15029174980.5,11413771148.0,9849217225.3,11509416187.8,11797506115.9,12783628604.8,18574792462.9,19122577315.9,9110219034.9,9183188179.3,8286147465.7,10487601696.2,9867114251.4,8465862867.3,10072556893.1,9091716274.5,10972595659.1,9145240528.6,8405671329.3,5344104844.6,6567473013.7,7817115535.4,8081953631.0,6368971195.0,6801953676.6,5533962464.9,6316272144.2,7832573210.8,6728559888.9,5493160643.0,4966612695.1,4547474665.8,4101610358.5,2819777005.5,2095884928.1,1646300349.0,1482164909.3,1335601996.5,1101728781.5,1258609218.6,668816897.9,565168219.8,507226227.8,,,,,,,,,,
SSD,South Sudan,,,,,,,,,,,,,,,,,,,,,,,,,,,,,,,,,,,,,,,,,,,,,,,,,,,,,,,,,,,,,
SSF,Sub-Saharan Africa,,,,,,,,,,,,,,,,,,,,,,,,,,,,,,,,,,,,,,,,,,,,,,,,,,,,,,,,,,,,,
SST,Small states,,,,,,,,,,,,,,,,,,,,,,,,,,,,,,,,,,,,,,,,,,,,,,,,,,,,,,,,,,,,,
STP,Sao Tome and Principe,,8204524.5,3980587.2,3264299.9,1774944.4,1753458.7,12657024.7,5268821.5,11237096.3,1441785.1,1455327.8,2053761.7,2054543.1,5393550.4,6406904.2,6472224.0,6489695.7,4429796.5,3526012.6,2942447.7,3407108.4,3988268.8,3291926.2,3180461.4,2715932.2,1755637.5,2383088.7,1866577.4,2142495.3,1542129.8,2331674.4,5168935.9,2154445.9,3036281.4,1341232.9,2797582.3,3051105.2,2536696.3,2024999.6,1347245.0,1070095.0,2000.0,,,,,,,,,,,,,,,,,,,
SUR,Suriname,,,,,,,,,,,,,,,,,,,,,,,,,,,,,,,,,,,,,,,,,,,,,,,,,,,,,,,,,,,,,
SVK,Slovak Republic,,,,,,,,,,,,,,,,,,,,,,,,,,,,,,,,,,,,,,,,,,,,,,,,,,,,,,,,,,,,,
SVN,Slovenia,,,,,,,,,,,,,,,,,,,,,,,,,,,,,,,,,,,,,,,,,,,,,,,,,,,,,,,,,,,,,
SWE,Sweden,,,,,,,,,,,,,,,,,,,,,,,,,,,,,,,,,,,,,,,,,,,,,,,,,,,,,,,,,,,,,
SWZ,Eswatini,,58516555.0,45221211.9,42734262.8,39814376.0,34181691.8,35590851.1,38148403.4,45037986.9,48464800.9,51255981.6,54484515.2,58543687.7,51166542.0,40123418.6,35275638.4,45993899.1,31058899.0,20763647.7,25105028.8,29636601.5,32993375.1,25888689.2,20546170.6,29373334.8,17629637.3,22859306.9,20847033.2,21332644.7,25546514.7,43429857.8,29356525.9,32485782.8,43217254.3,27910091.1,23533657.9,18687759.7,20384034.6,20542354.9,18676350.2,15999023.2,7198602.5,3843596.0,2177789.7,1963276.4,3350569.4,4359784.7,9710547.7,8624451.9,4221669.6,3399100.0,,,,,,,,,,
SXM,Sint Maarten (Dutch part),,,,,,,,,,,,,,,,,,,,,,,,,,,,,,,,,,,,,,,,,,,,,,,,,,,,,,,,,,,,,
SYC,Seychelles,,,,,,,,,,,,,,,,,,,,,,,,,,,,,,,,,,,,,,,,,,,,,,,,,,,,,,,,,,,,,
SYR,Syrian Arab Republic,,661701.4,19776490.0,316324.5,47588.2,0.0,,,,618814603.7,619964955.1,618317153.1,684816997.4,,,,,,,,,,,,,,,,,,,,,,,,,,,,,,,,,,,,,,,,,,,,,,,,
TCA,Turks and Caicos Islands,,,,,,,,,,,,,,,,,,,,,,,,,,,,,,,,,,,,,,,,,,,,,,,,,,,,,,,,,,,,,
TCD,Chad,,156242478.3,176908458.4,125616907.3,124553323.2,90632666.9,588018693.4,117111977.2,79326713.7,74701759.6,61736120.2,64644368.4,122679544.6,52349641.6,40369349.7,40038328.0,24913171.9,26749623.7,18778539.0,18125431.9,22212345.4,22805089.8,17200494.1,19714630.5,20162368.0,6856741.3,12992630.1,10760795.7,8048213.2,8281539.2,6270412.8,5071595.7,6691111.3,5508275.5,5001408.2,12440658.7,3341427.1,358250.3,1204802.2,610000.0,2670948.8,2009389.6,3123049.7,3449641.1,4441385.3,6436976.7,3269074.4,3271181.0,4280120.0,6711465.6,2940088.7,,,,,,,,,,
TEA,East Asia & Pacific (IDA & IBRD countries),,,,,,,,,,,,,,,,,,,,,,,,,,,,,,,,,,,,,,,,,,,,,,,,,,,,,,,,,,,,,
TEC,Europe & Central Asia (IDA & IBRD countries),,,,,,,,,,,,,,,,,,,,,,,,,,,,,,,,,,,,,,,,,,,,,,,,,,,,,,,,,,,,,
TGO,Togo,,91472518.1,92489272.5,77933427.6,68480217.5,44155947.9,48121662.2,49945160.7,22540845.1,14810102.0,35802448.2,52612914.4,191352574.3,5307867.2,17222125.1,8292355.8,4345417.7,3175905.1,2512177.7,18640010.7,14577797.2,27637745.5,25777551.1,41550070.2,43628687.6,14048155.1,12100245.5,12962432.6,19327993.2,38501551.9,60040563.5,57310526.9,93523711.1,61163901.7,126956199.4,90041342.1,74614857.8,49777404.8,70292284.5,70833103.5,37855977.9,28196930.6,47686381.9,56712966.9,23002292.4,16587053.5,8547030.6,6619978.9,5289591.3,2423047.3,2367404.0,,,,,,,,,,
THA,Thailand,,1698417847.8,1607998487.4,785447928.1,791863653.9,1389013946.6,695400001.9,1465642320.5,1043257333.0,1425204570.6,1002157532.2,1031130310.0,2410147568.0,2045359367.6,3159596374.4,3115094753.0,4905241381.6,7318428579.1,7617620907.7,5141988315.0,4604097044.6,4097000055.1,2286799935.4,2012107122.3,2198965151.7,2772624783.5,2661602883.8,2161483852.4,2096355079.5,1826854121.5,3271233315.5,2380277667.9,2655309781.7,1926344786.0,1918726098.5,1479474036.0,1245749247.9,943769065.7,806594948.5,634222806.0,440759809.6,313296044.8,187682638.6,122260495.9,86870650.1,72308102.1,58776376.7,53243793.8,43043753.1,40379489.4,39180629.9,,,,,,,,,,
TJK,Tajikistan,,203830423.1,199952476.1,149978970.9,147391888.8,126095565.2,132214606.5,128964297.1,104250167.1,62833916.1,59967289.4,58835273.9,78130963.8,47290234.5,54548679.5,45769278.5,55931371.1,38355484.8,33323919.2,32325249.1,20759140.1,17120076.6,59362000.0,33465000.0,,,,844000.0,,,,,,,,,,,,,,,,,,,,,,,,,,,,,,,,,
TKM,Turkmenistan,,54784585.8,22216237.6,22608969.6,22012424.7,36762523.3,41313421.1,42022750.8,44203137.3,127473971.7,140121044.7,163560711.1,165934999.0,193864789.6,220276989.3,226433191.3,372123896.2,409260235.2,511199854.2,508253556.0,448611787.3,310151999.0,292987333.3,244182429.3,181643348.1,102369428.1,97721218.0,10369957.6,,,,,,,,,,,,,,,,,,,,,,,,,,,,,,,,,
TLA,Latin America & the Caribbean (IDA & IBRD countries),,,,,,,,,,,,,,,,,,,,,,,,,,,,,,,,,,,,,,,,,,,,,,,,,,,,,,,,,,,,,
TLS,Timor-Leste,,7060000.0,3162000.0,1731000.0,810000.0,302000.0,176000.0,47000.0,,,,,,,,,,,,,,,,,,,,,,,,,,,,,,,,,,,,,,,,,,,,,,,,,,,,,
TMN,Middle East & North Africa (IDA & IBRD countries),,,,,,,,,,,,,,,,,,,,,,,,,,,,,,,,,,,,,,,,,,,,,,,,,,,,,,,,,,,,,
TON,Tonga,,5467980.6,10234801.1,5573529.1,6180709.2,6429938.9,6538248.5,6601215.5,6373058.1,5996957.6,5010669.1,3838590.3,5449485.7,4683705.6,4008947.3,4890272.3,4226221.5,3589220.0,3404342.7,2649728.4,4548140.6,4147091.4,3636811.7,4059820.7,3364058.5,3142396.5,2668722.9,1675142.2,1557114.8,1624321.5,1512493.5,1233733.8,1231744.2,1120227.9,909083.5,775009.4,,,,,,,,,,,,,,,,,,,,,,,,,
TSA,South Asia (IDA & IBRD),,,,,,,,,,,,,,,,,,,,,,,,,,,,,,,,,,,,,,,,,,,,,,,,,,,,,,,,,,,,,
TSS,Sub-Saharan Africa (IDA & IBRD countries),,,,,,,,,,,,,,,,,,,,,,,,,,,,,,,,,,,,,,,,,,,,,,,,,,,,,,,,,,,,,
TTO,Trinidad and Tobago,,,,,,,,,,,,,,,,,,,,,,,,,,,,,,,,,,,,,,,,,,,,,,,,,,,,,,,,,,,,,
TUN,Tunisia,,2398929825.5,1810747675.7,2239295690.2,1652446112.1,1582597258.0,1769995645.8,1884485257.3,2126931665.4,2334563797.8,1958753496.9,1846976517.6,1704171358.6,2127636443.0,2177097814.8,1712555494.3,1907273174.3,1506944422.7,1371438339.9,1242990796.3,1743203993.9,1369972892.5,1273554784.7,1259379072.3,1324926192.0,1366599555.1,1347465373.9,1220958878.7,1213267791.1,1130072062.6,1220007258.8,1000363169.3,967547671.9,988355199.5,793267107.1,673325591.0,650903248.3,575813232.0,496829141.9,525886598.2,430165341.1,317427207.0,217993285.5,149093248.9,101318816.6,103480238.3,93454598.4,89406950.6,95660889.6,71128908.5,65422520.0,,,,,,,,,,
TUR,Turkey,,18390459520.9,15698823933.2,16213722444.1,12936226081.3,10928039897.8,11747306717.9,9628924457.3,10453087005.7,11288408662.7,10719504050.2,11427659169.7,13071851763.8,11866287155.9,10737006281.8,12594774255.8,12149372192.4,12457852540.0,10070128056.0,11512350344.2,9735514971.0,8513569727.0,10544925496.0,8702553783.9,8375395709.7,9112941572.1,7654166678.7,6911318518.0,7464745051.9,7011286662.0,6507454324.8,6107376067.2,6163559092.5,4635150456.3,3398357984.6,3552883092.4,2263829475.2,2310229297.0,2293048606.3,1729510716.1,1052882991.9,716912400.7,468651397.7,364938173.7,312159774.4,262294021.3,240378394.7,206349305.3,219979548.0,161557801.6,144710196.7,,,,,,,,,,
TUV,Tuvalu,,,,,,,,,,,,,,,,,,,,,,,,,,,,,,,,,,,,,,,,,,,,,,,,,,,,,,,,,,,,,
TZA,Tanzania,,901844148.7,869770210.2,490838731.0,455797272.3,194195812.6,154788845.4,201511291.0,79530450.2,72507391.4,85229309.7,53967751.2,34776780.3,43268898.8,73184972.2,72990040.0,84041054.4,73183724.3,91739315.1,131195073.3,145125453.2,182550951.4,186521082.8,125286338.2,239198344.4,201973343.3,162685829.3,200149624.4,222986433.6,172946897.6,136474943.0,155523598.5,126434532.5,116906418.6,97964409.1,136325593.8,70844947.6,92211376.0,88083289.5,80223138.5,73735327.9,63427397.6,50231675.2,33525279.9,23807001.2,19719388.7,10860555.5,7983341.2,6394070.7,4761429.1,3795467.9,,,,,,,,,,
UGA,Uganda,,281183636.0,321666870.1,177491570.0,101540397.5,86319312.1,95571821.6,79828120.9,66132465.1,61758767.3,60976831.6,67157910.5,67302576.3,61961264.5,93728200.0,131572920.2,70197882.1,63375952.1,48782080.0,30299748.7,46850022.7,88592812.0,93405847.4,97625983.6,93461946.5,102897086.0,119919740.3,123232633.4,76348533.4,100448075.5,83733081.3,96876662.6,101834548.9,67098383.2,58021868.1,56152239.9,57292643.1,48327867.2,43179302.1,45432117.1,35855845.9,17085729.6,9736424.0,16025295.4,7310030.7,10458687.6,13951504.0,24524860.9,9517049.9,9496535.8,9039288.9,,,,,,,,,,
UKR,Ukraine,,4676859476.9,5065659326.7,4957511666.7,3332682037.3,14868887965.5,3825283664.4,7686355834.1,3427139958.7,2464225980.2,2039422917.2,2865370721.7,1968347511.4,1891295055.7,1895840498.2,1793890945.3,1549887618.9,1362319326.2,1144040679.0,869737874.0,1759313418.5,1278863038.5,1298024507.9,1098570022.7,1074464151.3,1035645932.2,255401221.5,160592520.6,7260228.7,,,,,,,,,,,,,,,,,,,,,,,,,,,,,,,,
UMC,Upper middle income,,277518063585.0,269893190651.4,226971719961.4,201680515316.8,230897207440.3,190877311770.1,154249834785.0,141329804609.8,145907227295.4,143313268248.5,128289682306.6,156613798521.5,137738033038.3,175211755737.8,139844120094.5,125928429437.0,132785608880.6,118259218847.7,121663318590.9,122641563234.1,114427961616.8,106755531380.5,118639336855.7,114348067873.3,95919430648.4,71929257965.2,60953098710.8,62939451459.5,67009633580.9,67159954251.0,64091074626.6,67967567366.0,57114373242.3,53792382093.9,48527437367.0,40326085090.1,38354463140.7,39809898339.3,35864994378.6,31255950972.3,27666955197.4,19625305444.7,12392662309.8,8512075168.0,7260496401.7,5945586045.1,4797885692.2,3501481316.5,2879040592.4,2640021528.3,,,,,,,,,,
URY,Uruguay,,,,,,,,,,,,,,,,,,,,,,,,,,,,,,,,,,,,,,,,,,,,,,,,,,,,,,,,,,,,,
USA,United States,,,,,,,,,,,,,,,,,,,,,,,,,,,,,,,,,,,,,,,,,,,,,,,,,,,,,,,,,,,,,
UZB,Uzbekistan,,660103649.9,526706289.3,459275231.1,432314634.0,358181282.6,374879223.9,351010116.4,367829398.0,363084148.1,432833337.5,468297672.8,574498805.9,635959868.4,718144761.9,627042031.9,677547945.5,719350564.3,634741672.7,644514721.3,631297955.5,471928904.4,330848833.5,474655265.8,280004523.8,227552741.4,132058314.0,29637471.5,4683683.6,,,,,,,,,,,,,,,,,,,,,,,,,,,,,,,,
VCT,St. Vincent and the Grenadines,,34143104.9,36086650.5,30926977.9,30633319.5,32465567.9,29831299.8,32649267.1,36573540.2,35077988.2,36233746.7,36108139.5,30707524.1,27777151.7,33320195.7,23637119.5,19311572.1,13768803.3,11816296.4,11979783.8,11215940.6,12571151.4,10013286.4,9893979.0,8402613.5,7150878.3,7267345.4,7717043.8,5904670.4,4822998.5,4229039.3,3531062.9,3466130.9,2907902.3,2707033.3,2433885.7,1917986.3,1394309.5,1401532.6,621053.7,422055.8,226255.2,134245.1,110432.4,74961.3,56010.6,56133.1,56634.9,42679.4,55192.7,82000.0,,,,,,,,,,
VEN,"Venezuela, RB",,,16953000.0,143579443.6,311236000.0,9623713386.2,8447500764.1,7938559608.6,6169343469.3,6887858048.3,4481391173.7,4099490910.8,6112902450.7,7520866228.8,5067084455.6,6134480525.8,7776829453.4,8220678540.8,6988397407.0,6640002211.5,4964558248.6,5205170510.0,5517475145.7,3648990821.5,3547922319.5,3760865060.5,2124019100.5,2300768975.0,1829222628.5,2199182206.7,4168942958.9,2573857594.0,3273592776.3,2775058871.2,3095399338.0,2389382319.5,2786941491.2,2728095875.6,3271216707.4,2599342173.4,2964561905.5,1545129468.4,760281702.7,836783297.1,414600807.3,546740065.5,511176657.3,315940632.7,220951921.4,134222824.4,89084219.6,,,,,,,,,,
VGB,British Virgin Islands,,,,,,,,,,,,,,,,,,,,,,,,,,,,,,,,,,,,,,,,,,,,,,,,,,,,,,,,,,,,,
VIR,Virgin Islands (U.S.),,,,,,,,,,,,,,,,,,,,,,,,,,,,,,,,,,,,,,,,,,,,,,,,,,,,,,,,,,,,,
VNM,Vietnam,,3834764334.3,3598422115.1,3269211535.0,3403563518.4,2704948556.6,3510484373.9,2665359869.5,2219332200.4,1888941827.0,1618330289.8,1394086241.2,1237821747.6,1038689770.3,806870249.3,800757710.7,701690798.8,743524345.9,1120018083.8,1145250494.5,1234276124.7,1349541012.7,975387269.6,773634656.7,301448791.8,307149866.9,268661410.3,261257704.3,212178654.6,136205107.0,145660015.2,199852658.7,2953000.0,1448000.0,1487000.0,1475000.0,1487000.0,968000.0,260000.0,274000.0,,,,,,,,,,,,,,,,,,,,,
VUT,Vanuatu,,16496319.9,16200447.5,8534259.0,8050409.4,6288512.3,6977639.2,6347225.5,4824643.3,4893216.5,5163516.4,4908772.8,3668889.4,3025328.1,3124793.6,1810277.0,2417699.2,1790741.5,1575301.0,1464742.1,1531702.2,1340127.7,897496.2,1147240.6,1339025.7,1310234.2,1352296.0,1396683.8,1432515.0,1188714.0,1694401.9,1259346.6,1287095.3,2618772.6,958856.9,555773.5,570400.5,559073.0,477519.0,491746.1,,,,,,,,,,,,,,,,,,,,,
WLD,World,,,,,,,,,,,,,,,,,,,,,,,,,,,,,,,,,,,,,,,,,,,,,,,,,,,,,,,,,,,,,
WSM,Samoa,,26965836.0,27957461.8,24007348.2,21345317.3,19358656.6,19057452.3,14889304.0,13332258.4,11877140.3,10565098.2,8472306.2,8047625.1,6915208.9,6956489.3,5766598.8,6075495.3,5363142.6,4744081.5,4717313.4,5474122.0,4662496.9,4126757.3,4641902.9,4650210.1,4542497.5,5091986.7,4060577.0,4556735.8,4118001.5,4449779.4,4407934.0,4158479.5,3948167.8,5445055.8,5246053.0,4238030.9,3842398.6,2872623.7,3416348.0,4566807.3,3724424.7,2876305.7,2115254.4,3328949.5,1060970.5,1117804.4,699702.6,197608.1,72000.0,75000.0,,,,,,,,,,
XKX,Kosovo,,34136158.1,31983517.4,30452843.7,29294211.5,23846549.5,27075718.1,27287110.7,25857892.9,28233771.3,25658000.0,230280943.7,,,,,,,,,,,,,,,,,,,,,,,,,,,,,,,,,,,,,,,,,,,,,,,,,
YEM,"Yemen, Rep.",,84041000.0,83895000.0,78892000.0,128845573.7,356037626.5,361087267.4,269332220.8,254247038.4,249792824.9,228721180.2,212101469.9,204172425.0,178090064.2,167709689.5,148944062.7,175950885.6,151216031.8,140143088.1,180636545.7,126480412.1,121973254.8,189294258.9,86135382.5,78938474.8,90686043.4,80892386.1,98654077.6,102996836.9,151055403.8,107873864.2,207199288.0,254850244.5,216021101.4,128534779.7,94479070.2,82237105.3,58662716.2,71502974.0,76606853.7,34809965.5,18664501.3,12864255.9,10765021.9,14298356.3,4390500.0,4143955.1,4835605.8,326000.0,366733.7,,,,,,,,,,,
ZAF,South Africa,,5036794041.9,14204104309.2,4516780393.9,4689479970.0,15582136385.4,4175849444.8,8339170406.7,5929251748.2,3750092617.8,3238499384.5,3183347492.7,3161178980.7,2725004045.9,4341468491.3,4082218603.4,2000170798.5,2333032922.0,1910923344.8,2664826228.9,2322439993.5,1184782139.7,2656440911.7,2149536340.8,2234915596.5,1765460839.0,1483784193.3,,,,,,,,,,,,,,,,,,,,,,,,,,,,,,,,,,
ZMB,Zambia,,908116684.5,726082183.8,492146329.4,471573164.7,285715315.3,172130423.5,227042081.0,139491571.6,68217114.2,57925403.0,71257881.3,75271350.9,41405459.3,71631768.5,99742027.9,121495219.4,438953991.5,144427914.4,125879598.0,155405273.1,125413805.7,182873883.8,226450451.6,229274637.5,365880803.1,309155121.4,229264287.2,242611824.9,490426704.8,171106568.8,171839513.2,188357562.2,166579979.9,155960753.4,86567344.7,112561593.9,119288986.1,173424540.9,292546424.5,287637789.2,256372354.8,240684084.6,196898802.4,120953519.1,96036042.2,116194423.5,370734822.7,115450725.3,81264136.1,64004365.5,,,,,,,,,,
ZWE,Zimbabwe,,64428680.5,89821183.8,138585680.8,151876794.1,154031919.5,134992831.5,121018647.1,20743673.6,22151935.8,15529950.6,14174858.6,7749743.2,48927490.8,13624944.2,34890170.6,72428148.8,36530974.6,9497302.6,44622118.7,214397446.7,460619978.5,420971480.2,445845198.5,464918984.1,478620727.0,434274797.6,483895375.6,474569662.1,361387805.0,371628824.7,346540467.8,409512087.5,375070375.6,339583992.4,322843512.4,273762502.2,435432019.7,140176201.0,65281441.3,49880187.5,14559686.7,8369053.3,5927940.3,7388741.7,7948809.9,14545263.8,16147891.4,11431172.9,10428098.8,9428900.0,,,,,,,,,,
