economy,Country Name,YR2020,YR2019,YR2018,YR2017,YR2016,YR2015,YR2014,YR2013,YR2012,YR2011,YR2010,YR2009,YR2008,YR2007,YR2006,YR2005,YR2004,YR2003,YR2002,YR2001,YR2000,YR1999,YR1998,YR1997,YR1996,YR1995,YR1994,YR1993,YR1992,YR1991,YR1990,YR1989,YR1988,YR1987,YR1986,YR1985,YR1984,YR1983,YR1982,YR1981,YR1980,YR1979,YR1978,YR1977,YR1976,YR1975,YR1974,YR1973,YR1972,YR1971,YR1970,YR1969,YR1968,YR1967,YR1966,YR1965,YR1964,YR1963,YR1962,YR1961,YR1960
ABW,Aruba,,,,,,,,,,,,,,,,,,,,,,,,,,,,,,,,,,,,,,,,,,,,,,,,,,,,,,,,,,,,,
AFE,Africa Eastern and Southern,,9.69841351839239,11.0589757046159,6.91878233608881,8.00735162917825,11.114222252825,5.181726963158519,5.66119466820799,4.3924307014067105,3.0200833797224504,3.04571465183698,4.71608386159868,2.7943989479948197,4.43790083070154,6.42794360537292,6.54012287601131,5.51378374650573,6.99153113899043,7.178226027199349,10.0616063171955,9.19894347237735,7.50405635882928,11.169300362290599,8.811840233186151,8.9836329526421,7.3307821164767,7.397797869806559,,,,,,,,,,,,,,,,,,,,,,,,,,,,,,,,,,
AFG,Afghanistan,,2.3907169420445,2.5952226940455296,3.54864769227737,3.73588202243344,2.80585396332281,1.87526084674456,1.55478392301891,0.553390349525131,0.313643499018774,0.344156289997136,0.487686262693032,0.402819292924976,,,,,,,,,,,,,,,,,,,,,,,,,,,,,,,,,,,,,,,,,,,,,,,,
AFW,Africa Western and Central,,3.92759157696204,5.6087165613970305,5.1262190892702,4.85377849338621,3.58808010495794,2.5070671770373902,2.35028870148548,1.4494417009397802,1.44915474114977,1.63652739959037,2.6249673349402403,4.06692982298845,3.2335639204614197,8.65443099963221,11.5459481891909,6.03236053773906,6.78489953883759,8.18498249533257,11.5767027050018,9.50969571297723,10.5759666111456,14.621773929888699,13.7754882834954,15.4686353882676,15.908790754562599,18.6467447855455,12.4589716859059,15.5851218698983,17.9665721049091,19.2705022263515,19.8398876068532,24.8921561169938,17.309005112475,23.870655826094197,23.7865969150342,20.703082250832104,15.9719902725786,12.225226299337098,7.41284463949791,4.70350261234146,4.785031597920099,4.7079775964736,2.28650363182745,8.878517326500448,7.39115835538422,4.90475912919296,,,,,,,,,,,,,,
AGO,Angola,,22.2418895063273,16.8096686464935,18.3560158404538,26.279420953263003,15.5789198546383,10.424093391932699,6.9798287763506295,5.8318970848669895,4.17575088836205,4.444205851261191,8.47488015173094,2.43739585034862,9.65507480238269,12.9734967257822,10.5207986148668,13.5680441475705,15.2461608324612,16.739225757069303,32.793058421933196,20.6168753180352,26.2099293204466,40.1984108164805,18.3461215631972,17.5217177750125,10.770142238861402,6.419671608277251,2.93441626789502,4.792054580015639,9.228749383870609,7.06505982762928,7.62706000948167,,,,,,,,,,,,,,,,,,,,,,,,,,,,,
ALB,Albania,,7.518139311779031,13.1414907503061,6.82539248513497,7.237381610076599,16.9562821548386,6.327968203995219,5.09412886419534,7.918081938604571,7.55635667663239,6.83537687202513,4.8272288837475195,3.14336489120975,3.6545073471935803,4.37998012053594,4.44191909323202,4.74380409315947,5.01284692817012,6.47285588325464,4.10415419763616,4.08926321599045,4.32975848421053,8.36030479390681,13.7492488493594,4.3635530442400405,1.97426736758052,6.63578141560799,3.17620015741834,2.1752603875134597,4.29887168674699,,,,,,,,,,,,,,,,,,,,,,,,,,,,,,,
AND,Andorra,,,,,,,,,,,,,,,,,,,,,,,,,,,,,,,,,,,,,,,,,,,,,,,,,,,,,,,,,,,,,
ARB,Arab World,,,,,,,,,,,,,,,,,,,,,,,,,,,,,,,,,,,,,,,,,,,,,,,,,,,,,,,,,,,,,
ARE,United Arab Emirates,,,,,,,,,,,,,,,,,,,,,,,,,,,,,,,,,,,,,,,,,,,,,,,,,,,,,,,,,,,,,
ARG,Argentina,,38.455275485176,32.3127090203827,38.68871188686771,23.8105810555445,15.905005463380899,11.978812422957402,8.07124726230915,6.31427835208963,7.757750170715389,10.424473653381302,10.921743293299,6.73971047343004,6.912092182832769,23.0847795196932,14.2054415594713,19.900580316215,34.956358246950394,15.5964927610336,31.8056957802838,40.287601761383705,37.5021736627477,28.161421957856398,27.6513301036485,23.4138917810621,20.5009776835245,18.5040509379,26.685752251753996,24.254324450079103,31.020822754773103,34.8874220823826,31.430492859159603,39.9611197297535,65.3038056459672,66.629926924556,43.8393054100107,38.0438806700979,25.766435588898002,23.998499316248104,18.4133747522236,18.4411639100161,15.0246142617991,33.9056163067892,17.9566700771742,20.9286174674909,,,,,,,,,,,,,,,,
ARM,Armenia,,12.685887372110901,6.40079729570702,5.246108987618321,5.3077917999457,9.62644309124567,5.864514884141211,19.523074903953102,5.9265490351931,2.6710916905996602,2.7421345152290297,2.9382567573545804,1.786143520034,1.9059720010288799,2.75539974886242,3.3080825836882,6.55218690582062,8.798743258963938,7.936348731241059,8.18853256569916,8.23273861334131,12.6598740869907,12.8909536230376,4.919658722124139,9.52167213338737,3.15209367385766,1.93877045672867,1.1246650717703301,,,,,,,,,,,,,,,,,,,,,,,,,,,,,,,,,
ASM,American Samoa,,,,,,,,,,,,,,,,,,,,,,,,,,,,,,,,,,,,,,,,,,,,,,,,,,,,,,,,,,,,,
ATG,Antigua and Barbuda,,,,,,,,,,,,,,,,,,,,,,,,,,,,,,,,,,,,,,,,,,,,,,,,,,,,,,,,,,,,,
AUS,Australia,,,,,,,,,,,,,,,,,,,,,,,,,,,,,,,,,,,,,,,,,,,,,,,,,,,,,,,,,,,,,
AUT,Austria,,,,,,,,,,,,,,,,,,,,,,,,,,,,,,,,,,,,,,,,,,,,,,,,,,,,,,,,,,,,,
AZE,Azerbaijan,,6.4717257450788,7.6933829414735,7.516506347966889,5.37497850806123,3.7249865144126497,2.0344709385197,2.3074484109983797,1.02626957345353,0.93286287357526,1.0858391957167401,1.2328368935953,0.7774779930151958,0.8048092938889759,1.03067944497486,1.5777620418132299,3.26987994067702,5.36261167155249,4.55590215928988,5.00853428278511,5.54873484313586,4.66936262143656,2.03187016212316,6.5995701007730805,1.14595134043994,1.2374737268651101,,,,,,,,,,,,,,,,,,,,,,,,,,,,,,,,,,,
BDI,Burundi,,,9.71018170586999,12.3430789801158,16.019136828263303,13.918494251675801,13.5643574946178,13.5591978444016,8.86755036131289,4.2070557276557405,2.3281033686745802,16.4822208484971,11.8623439629039,18.4669461779781,20.360186879841198,40.4074816381618,134.721955054621,62.1181036087685,54.5656251297029,46.406866962406795,34.836359622047404,46.1689477609495,41.3075538452773,30.1662021305017,53.3579168020117,27.2720725420847,38.9776719964116,35.475480762408104,35.3360747039599,29.5711513976619,41.6755298051624,35.3515852843215,32.06449464383,39.381794615116604,23.1748961835223,19.0232318426545,,,,,,,,,,,,,,,,,,,,,,,,,
BEL,Belgium,,,,,,,,,,,,,,,,,,,,,,,,,,,,,,,,,,,,,,,,,,,,,,,,,,,,,,,,,,,,,
BEN,Benin,,,5.84075319922411,3.01098797400616,2.9768345895743797,2.7455609812880897,2.48017315705767,3.1093845954413397,2.87717514859286,2.44053726251977,2.2841987001775603,2.9339184566829903,1.5869002099435,2.14523346834355,4.13759098453714,5.8740083998645,4.9371250252817696,5.020070193220049,8.46400345100014,8.14326035171168,12.8031813349061,10.2313775611184,9.1610871050001,8.41055050151518,6.127879239756,7.2211451397504005,6.850018477674661,5.20302654188796,4.804256134437031,5.10605556005947,8.91022945923323,7.195910749454599,6.78365031161476,7.0380605474730595,14.2806595786698,12.390218513386,13.9962640213045,13.7810102509602,7.53538075646422,2.17153183693863,3.64080235303773,3.57833842501539,3.0833129239603103,2.35549610905091,3.5873953440958797,4.12194499659127,5.23610823810614,,,,,,,,,,,,,,
BFA,Burkina Faso,,,2.99964735342487,3.4273299557345998,3.5140890898833703,3.84610066107906,2.74021834671619,2.39789262593875,2.09400635870232,2.3098946523152404,2.47097874469816,3.80846396004108,3.85847942727543,4.64875355568319,5.9321501878727805,7.76623840746492,8.938242525320598,12.0299914715514,13.655050125526301,13.0391390977249,18.448078394192898,,,,,,14.881057549386401,11.515273076437499,8.885729447028359,11.377368552397401,7.80425730607188,13.1438261135482,12.1184114444863,11.0726790356953,16.7228047553277,15.8605073582445,10.759526578628302,9.67771719080754,8.31447066137416,6.5695231289126506,7.5307289749876,5.07492841907038,5.261293895383299,4.623998115324519,4.39564158497857,5.50060228011755,4.46800012455687,,,,,,,,,,,,,,
BGD,Bangladesh,,4.1317321062142796,3.60390998798023,3.4748560936037998,3.01913202497009,3.4776595947173,4.823184512798309,5.10978274531176,5.10211968573033,4.92421724647036,4.45338183957342,5.42499817173172,4.80385202575707,6.377695697854331,5.01333148157207,7.283972276509969,6.82865283748165,8.09227442416867,10.0079896201209,9.41040588964907,10.299350227653699,10.696832308417301,10.276741910814401,11.8602389070274,13.5970948459162,15.7837922400755,14.348911668851303,16.042208555882198,19.3726906581175,26.6692522885583,33.7263358580019,29.1440323934091,30.3376789393907,36.4097176640836,37.375111625249,24.5006007363822,22.458338313705102,19.9647218729332,19.488990193878,16.9009655098113,20.5945963031461,22.031145707508603,19.5210989351333,24.810410348153898,28.7032048868339,,,,,,,,,,,,,,,,
BGR,Bulgaria,,1.1914262634195,1.27103580697672,4.00572861158939,1.45990805696988,1.19323960798474,1.1242060868943,5.09548809028892,1.27975281540063,1.29361037287689,1.72412652613307,2.51938396363976,3.23913269235501,3.97005551315555,5.48879393445649,14.6908281483481,10.3757465391453,7.1001454878386605,10.4147123263168,15.1268294199536,13.053373003095901,13.9431499458501,16.91006288385,18.338642867935,18.454031302429602,16.119096686446902,12.727136464769002,6.191623529176019,8.166732823479169,5.403168615384621,18.6206171018388,26.287651291328803,21.906173218652302,17.0887324563526,15.569963194416498,10.2016312352431,4.118878462714759,2.98918996119017,1.71241286254184,0.71517661588569,,,,,,,,,,,,,,,,,,,,,
BHR,Bahrain,,,,,,,,,,,,,,,,,,,,,,,,,,,,,,,,,,,,,,,,,,,,,,,,,,,,,,,,,,,,,
BHS,Bahamas,,,,,,,,,,,,,,,,,,,,,,,,,,,,,,,,,,,,,,,,,,,,,,,,,,,,,,,,,,,,,
BIH,Bosnia and Herzegovina,,6.071326473358001,6.83970495295591,7.41953413079203,6.471607398690191,7.283210388060911,7.73240575043925,7.053000356968679,4.45270271171034,3.68588964301355,3.62899875974874,3.28688729425924,2.7053214254283398,3.14809828478084,3.3413560285196797,3.5847532096873302,4.11622860062373,5.22392903311675,5.935028067573071,11.9790009876501,12.674192913103001,8.04184528452593,,,,,,,,,,,,,,,,,,,,,,,,,,,,,,,,,,,,,,,
BLR,Belarus,,8.3093448836244,10.305504099551001,6.8072617149542305,9.99779424859883,10.0014805780485,9.22242879965975,7.49227500038971,7.423326856391809,3.94924021044744,2.2098839261329504,2.36516894958034,1.00295836973764,1.18372626931974,1.0919471509312,1.36255317119183,1.62127797812944,1.9196263749341398,2.32637499075102,2.97732701076308,3.6196672976602797,3.3780547947979103,1.92196108475338,1.7008155680099601,1.6040902276955802,3.3592420394612,4.15263581230312,0.6439110296505961,,,,,,,,,,,,,,,,,,,,,,,,,,,,,,,,,
BLZ,Belize,,8.242376255964611,7.91900807229792,8.28677021641383,8.69627184630559,7.3976683474565705,6.89346010373868,10.800728891207399,9.28168483824913,9.349303173214071,11.5729599002046,13.1195225316872,11.603982069015801,78.9539216819878,17.586848238792,36.849302036389496,61.5160081058528,29.0733828659995,38.6791623982465,21.810014091162895,17.1417620525909,10.907307638261399,12.0277914682005,10.281246242877,12.1818567103616,11.7455147221718,8.5220104816571,5.99158651178918,5.42505812349086,6.1954535589264905,7.01403088379385,7.70790529665833,7.90536185286104,8.929490406800241,10.473211272475801,12.4926952344644,5.22492709776751,,,,,,,,,,,,,,,,,,,,,,,,
BMU,Bermuda,,,,,,,,,,,,,,,,,,,,,,,,,,,,,,,,,,,,,,,,,,,,,,,,,,,,,,,,,,,,,
BOL,Bolivia,,7.546337470618809,6.416818212870281,5.9510788751221595,5.52978097587389,5.2460612915654,2.6308845741665,2.2065923205229305,3.57036716917453,2.49980604877501,4.3569180052382706,4.74882736759198,6.44883339720714,5.375494285879429,6.90095643518876,9.77565528015506,10.9151378875591,14.196995142967902,14.4015699509704,16.3978448843615,18.209047595059303,18.5535600449622,25.962461419128605,23.776647046374396,25.608751977220003,25.7513491799382,25.7324828721454,34.3824901887209,34.3431776653598,29.7357390274976,34.1707331491713,31.214637869091703,52.57944314949199,32.0093449879952,29.964305963168698,38.3239600081367,40.2134469811321,35.0083511902113,33.6381481598432,28.829961433046197,28.488918829492196,31.9219779138997,52.43889589235129,23.8978203510775,21.845182788431302,,,,,,,,,,,,,,,,
BRA,Brazil,,14.6911197039906,11.837441194464299,10.8477702774864,10.6426295150098,12.747989016808901,5.479291141165991,7.11169914484882,4.0324217433161005,6.75487214973483,5.933092571797791,7.09766455076036,9.304018015738391,10.8218981771797,19.535415437446,30.165756414293,23.4856293559478,39.5031159,37.3860186473394,22.915320615330895,37.0146941966454,41.8337159426657,27.320561209151897,20.7094466758625,22.5986868464809,23.6497187193839,17.2321206340311,13.0744275574015,14.726188246054802,16.6366901685174,18.5978745566658,27.2570976113559,37.3556336219211,32.455842741385304,33.497866145795996,26.1573215442356,26.528392968382697,31.007625810361098,44.243871868422204,34.5159957653308,35.1672736975295,36.8181405550617,31.893832092622,21.9646288119911,18.86493461668,18.5348100744542,,,,,,,,,,,,,,,
BRB,Barbados,,,,,,,,,,,,,,,,,,,,,,,,,,,,,,,,,,,,,,,,,,,,,,,,,,,,,,,,,,,,,
BRN,Brunei Darussalam,,,,,,,,,,,,,,,,,,,,,,,,,,,,,,,,,,,,,,,,,,,,,,,,,,,,,,,,,,,,,
BTN,Bhutan,,6.6409890662627395,10.4196190848811,10.1204811434009,11.374244492014801,17.028472201436,11.835649646314199,11.0070226583246,17.781136133306397,11.190277888059,14.404953919101901,12.684489241537198,11.8507099824423,4.6950596607955095,2.53036545750162,,,,,,,,,,,,,,,,,,,,,,,,,,,,,,,,,,,,,,,,,,,,,,
BWA,Botswana,,2.8279404125592595,2.2548240121223198,2.41682649391939,1.89256490526752,2.10707343751678,0.583334178216561,2.04105451620515,0.8201238481315141,0.978402545687432,1.3313425251389999,1.01010635158965,1.15992792396316,0.715854390884894,0.944099925656214,0.9138810126918689,1.01805752868997,1.21174848272408,1.92848117785137,1.6898114582486998,2.00179606499067,2.1428863083622,2.58142280357106,2.78744239716636,5.23308008789792,3.14062000800815,4.0029032974084195,3.61000084562456,3.8974968063347597,3.43810354282637,4.34041726954126,3.3301549631544,4.232044357553439,3.86061252217035,4.23598162507323,5.31650794518194,3.65498688779365,2.97032419253425,2.13730253082599,1.4483107599970002,1.69085448358956,1.61159176572601,2.4604170627769397,1.88939189413608,1.55385998635416,3.21267609453193,,,,,,,,,,,,,,,
CAF,Central African Republic,,,,,,,,,,,,,,,,,,,,,,,,,,,11.826013117674698,3.7822674808009906,8.18090051786241,7.41990439341161,12.4936589093978,14.6864404646769,12.813126938345,13.162779301352199,14.2886121656413,13.5695344930743,15.5479893842172,12.1681128279029,4.05993876430201,4.73403872022004,3.8418711520381303,2.3488769006387997,3.57830918503977,3.31410558704773,,,,,,,,,,,,,,,,,
CAN,Canada,,,,,,,,,,,,,,,,,,,,,,,,,,,,,,,,,,,,,,,,,,,,,,,,,,,,,,,,,,,,,
CEB,Central Europe and the Baltics,,,,,,,,,,,,,,,,,,,,,,,,,,,,,,,,,,,,,,,,,,,,,,0.0219290731540175,0.0145420207743154,0.0,0.0,,,,,,,,,,,,
CHE,Switzerland,,,,,,,,,,,,,,,,,,,,,,,,,,,,,,,,,,,,,,,,,,,,,,,,,,,,,,,,,,,,,
CHI,Channel Islands,,,,,,,,,,,,,,,,,,,,,,,,,,,,,,,,,,,,,,,,,,,,,,,,,,,,,,,,,,,,,
CHL,Chile,,,,,,,,,,,,,,,,,,,,,,,,,,,,,,,,,,,,,,,,,,,,,,,,,,,,,,,,,,,,,
CHN,China,,1.0211259796574201,0.739745288867761,0.692060191364412,0.7640744496664229,1.3404510230797702,0.5445613760443979,0.47993849111837794,0.445864720993073,0.657232720922183,0.7921387920392329,0.6412378813323699,0.5868387272678499,0.645770522431796,0.8503601082653051,1.0966182611331,1.27992613666205,3.02754497292796,5.08872214798298,6.095419137318769,7.10409203458801,9.17566978181451,8.706504262392139,11.500883866031199,8.32007878237502,8.984162228152039,8.13551420499848,10.2438423904561,9.38499580272947,10.8471167581194,10.61087782865,10.1016352161233,8.506738201599799,7.999671912720751,8.34258792034677,6.369709602240139,6.61442691129369,9.76105095896503,7.58958385984067,,,,,,,,,,,,,,,,,,,,,,
CIV,Cote d'Ivoire,,,9.472935129546132,14.1942749665959,9.149318439215131,3.5584537870149906,4.267430400772221,4.0451406490474096,2.4401192955786897,3.1246668740574197,3.9650785150254704,7.299165522542849,7.00588519878839,2.07032710151061,0.8087094164886841,1.3486194625525,2.85497826763722,6.1734419516801395,9.91383921317293,8.01111403755853,15.848252741533699,18.5756414051402,16.4852333836803,12.0639230990803,17.4202459768683,19.113458110876,22.0540051754875,19.3741896542523,18.7130666005544,22.353174341491105,19.0614300490244,18.4058313198884,20.6394373965487,21.608206138210303,26.5603859606328,23.665858842429298,24.223526826964303,32.684456604732496,34.369424655764696,31.710109051219,23.9089829853399,17.960653777488197,13.7909008249229,10.1033308582626,10.4033510109591,8.63789697296759,,,,,,,,,,,,,,,
CMR,Cameroon,,9.14603108114245,8.47028992471016,6.58223493160915,8.35253537819149,6.024229785424991,5.573975312557219,1.8556631028194401,1.5461437492819898,2.49660277851276,2.62882560450498,2.59460857638424,2.64669954093021,3.9504633561356,10.7256062166918,14.354503955001302,12.8478161161505,9.77539205690514,8.84210144976527,7.165612192767509,14.257030201503,16.575699904686502,17.960948113675002,17.27385964139,18.424892680939198,17.2304215517138,16.7842418749248,18.568181400218602,11.2239652603358,12.3319504094522,13.0022289271631,7.664173687719639,12.142669124134299,16.3333378448317,12.540789547883302,11.875554514546302,11.7406754834044,11.5680655155927,15.2314169406541,11.8952857372324,9.74750252491828,8.76621010729824,8.53569113512566,5.84179670573433,,,,,,,,,,,,,,,,,
COD,"Congo, Dem. Rep.",,8.33329585822856,2.30546911501304,3.3688959786062793,4.0045563100813295,3.7288283530141904,3.21189130082075,3.2872305407043396,3.0535246403905805,2.44067188928518,3.0542060966034,12.333727781410401,7.59888896290728,7.529068377929731,9.03712813678573,7.78468774814008,,,,,,,,,,,,,,,,,,,,,,,,,,,,,,,,,,,,,,,,,,,,,
COG,"Congo, Rep.",,,,,6.41230274740488,7.339257790069589,4.8079146238881,4.56926987573849,1.63076929253737,1.16633394365073,1.55142122527189,2.8248878277815597,1.9783599263964498,1.75610018494646,1.34313692688072,2.2471093254713597,5.80004394728439,2.2858843189753397,0.992536796984244,3.82209439406991,0.5599706905720411,0.37913906915817,1.97475551274802,6.78254319899317,19.718494709266697,10.934300861225,52.1840990890519,10.811667604978002,11.932600107790801,23.0009420755166,31.3777490463385,24.270059474653397,41.1899707027273,39.857049923420604,40.4182632322828,31.538616265843302,25.3332582789955,27.199695858737897,18.3436250003583,17.966402145757502,7.61302294848984,13.347977945519302,5.37188764241174,,,,,,,,,,,,,,,,,,
COL,Colombia,,14.2643464808255,17.1670471488714,18.9501454146651,12.5119867329143,9.62316392355942,7.6899710995408705,6.05013450316395,7.023101759077799,6.648525246987621,9.34300961043775,9.42921209273227,9.580535898816539,13.201918301825499,16.8067960562258,25.998487055604603,18.4109326089783,34.2033035031191,32.7777249325323,27.7967364971197,20.9313279503128,32.3196957791707,20.331985971916,18.153015370799,20.8322893346405,24.610593489374104,29.2738920705062,26.7570962519982,35.6459809910365,32.808572845190895,34.522716421449104,38.564860747798704,39.950121369863,33.780666373595096,27.7211918717871,30.8280865836222,20.929863365240198,22.852309683158698,18.0955984088136,13.899664349409802,9.39095888934579,13.5113048146972,9.90571515586881,9.504557451968278,10.0454296260343,11.587422102379598,15.971865240421,16.9117305619522,18.4533047893764,18.229301704193603,21.2297433072764,,,,,,,,,,
COM,Comoros,,5.149214020877589,4.820527582025901,2.98082051223683,5.54648763813543,7.247070799461071,0.5918656384759411,0.5415884197125179,13.198681573518801,3.80520271470168,4.73668498079385,14.6104456844715,15.3994423484582,33.7947181265748,5.560113132800679,6.513725940504121,5.403407764546441,4.63350003208726,,,,,,,,1.78516104693982,6.5083102577074,3.79134677318144,11.0122346295314,15.6713123828478,2.5147579351272897,2.32866615212811,1.3320886176851698,4.05814213870573,6.54093610278703,9.1897254356735,23.2133279110885,6.01493954923536,2.8997168909454,2.7084969887469703,2.16101028057875,,,,,,,,,,,,,,,,,,,,
CPV,Cabo Verde,,5.911873926381481,5.61087518348539,6.14104160448345,5.907189688885389,6.22653397691234,4.77824364903538,4.576214244687599,4.53406522726793,4.74452231715688,5.44163754809739,5.62593375520214,4.250071208020181,4.977843513004481,6.429392956548481,9.57361109861946,7.92735140030131,7.26942351599749,11.870175344495301,8.17406197555756,11.0784796322344,15.880982436596401,16.8771744797905,10.4547729112101,7.4487278824230305,10.277453728141301,14.0277492734511,12.0857707691419,18.5858292547343,14.5134178431357,8.88855074637333,11.2324266658448,16.122095248735302,15.263769732416101,12.0586104352413,14.375869499571,16.2354309875102,7.753421372229719,4.40199138801318,1.15617189282861,,,,,,,,,,,,,,,,,,,,,
CRI,Costa Rica,,8.03039680414523,7.505594558844991,5.66464215063263,5.49398897379058,6.53532610046211,6.7614875772164105,8.58696141827389,6.11901777294901,5.850999918660281,4.3432298406726,7.157385998522639,8.71258663173745,3.3190328731931698,3.60052745431982,5.18965190939626,7.558973250677309,10.2299184439361,9.033835838595019,9.282873270102,8.303080451847839,7.6308232585932005,8.84779750228595,11.4050920549356,13.002900721271,15.428142524216199,12.2815012530245,15.2230720114009,18.3798509134116,15.815212608109901,22.620805158824897,16.6202043204182,20.9964603207138,18.599431622328,31.861877072628797,40.255362297276,29.239855020172,55.4685423588607,14.3819462917614,19.1444650963062,19.5021658460528,24.6516165031945,26.5542811707317,10.7940925394696,,,,,,,,,,,,,,,,,
CSS,Caribbean small states,,,,,,,,,,,,,,,,,,,,,,,,,,,,,,,,,,,,,,,,,,,,,,,,,,,,,,,,,,,,,
CUB,Cuba,,,,,,,,,,,,,,,,,,,,,,,,,,,,,,,,,,,,,,,,,,,,,,,,,,,,,,,,,,,,,
CUW,Curacao,,,,,,,,,,,,,,,,,,,,,,,,,,,,,,,,,,,,,,,,,,,,,,,,,,,,,,,,,,,,,
CYM,Cayman Islands,,,,,,,,,,,,,,,,,,,,,,,,,,,,,,,,,,,,,,,,,,,,,,,,,,,,,,,,,,,,,
CYP,Cyprus,,,,,,,,,,,,,,,,,,,,,,,,,,,,,,,,,,,,,,,,,,,,,,,,,,,,,,,,,,,,,
CZE,Czech Republic,,,,,,,,,,,,,,,,,,,,,,,,,,,,,,,,,,,,,,,,,,,,,,,,,,,,,,,,,,,,,
DEU,Germany,,,,,,,,,,,,,,,,,,,,,,,,,,,,,,,,,,,,,,,,,,,,,,,,,,,,,,,,,,,,,
DJI,Djibouti,,1.31926806342267,9.5165064717189,1.5569656906524398,2.11971710090989,1.2383072069757,1.0354759219522198,1.2421916822836498,8.075767332080291,8.42755438447247,7.500149681803791,7.4679716283016395,7.3324509821847705,7.87366498928573,6.91606800207332,4.91809691183202,6.349201041338411,5.642376246908389,4.93729307929419,4.468610618639981,6.10220303078853,4.3584812192874,2.2028007878572002,3.13166938782578,5.41984567860677,5.04864328597201,4.666565104608621,3.6162191632017007,4.7101091154467,4.69049079753788,,,,,,,,,,,,,,,,,,,,,,,,,,,,,,,
DMA,Dominica,,,16.5554128222118,12.836660613086199,9.966710839053881,8.6505929551646,7.1659102206594,11.281622697625,12.559540891110599,9.04265662229327,9.109044421067711,13.811788470652699,11.222258384007402,12.278557848110301,12.708105344106901,11.8141526096064,11.9359108652044,12.029622309984601,9.70726562362568,13.453176996139698,6.66724754716982,6.258954325831111,6.508910633355451,7.12868045257204,4.89448200017824,5.98273732860679,7.31846119928188,7.38653359745258,5.88005389108657,6.25361200077399,6.47296506596934,9.258121647699161,8.56943019360649,11.8690290845638,8.48861957508625,11.2036865284974,10.986118716577499,5.63379208747514,2.80667003058104,2.49033729508197,,,,,,,,,,,,,,,,,,,,,
DNK,Denmark,,,,,,,,,,,,,,,,,,,,,,,,,,,,,,,,,,,,,,,,,,,,,,,,,,,,,,,,,,,,,
DOM,Dominican Republic,,10.623358864635499,9.15869839512497,7.83420649690501,10.190354187089,22.2684786691844,12.948095169923901,9.93330874570646,7.6308291291100705,9.78028607629794,10.131798953482901,15.1066373103571,13.5132633485023,13.211584769245698,14.2111473382844,8.5400316338959,10.5379880839822,10.2302382819214,10.100115007244199,9.946552774633881,7.73208417802145,6.3914411059393,7.049309186786539,9.05242866847826,9.856524693545301,9.82418102629325,8.89967239132877,5.99393914091968,16.038704873334,12.0645613002778,11.061460417101099,14.091142333301198,16.3669554561624,17.173645044129803,24.197289238826798,19.168461506992,14.3313568561873,19.6075727957075,23.9382777089513,17.1444355877722,17.3531695301196,22.972147308879,11.170513524976402,8.02106796168174,7.030291243699451,6.507231333727339,4.98803046789989,9.644686773818739,6.4539263208919095,8.002050908467599,7.141586073500969,,,,,,,,,,
DZA,Algeria,,0.3351492749377619,0.326229136780972,0.41848455358651,0.475646929851391,0.47075021634019504,0.358222524465445,0.42095812143328004,0.8390007827220529,0.5874291227475379,0.604873213157269,0.8836211991951841,1.18114274342916,1.12933325064654,22.111901264211003,11.375245319488098,,,,,,,,,,,,,,70.9107060359716,63.756107256019796,67.858304858391,76.9268806025175,55.5523629024058,58.3920386395679,35.434147250196396,36.6691618387101,33.7088847522609,30.485594097737003,25.9608539924124,27.365570144147302,27.857957147589698,22.531967886824003,16.6464507870721,,,,,,,,,,,,,,,,,
EAP,East Asia & Pacific (excluding high income),,1.6645158300123701,1.32510522792869,1.33582306157483,1.4642622504293799,1.7962842381389699,1.54386625591136,1.10555198591222,0.9994084643675141,1.25279566047965,1.62286627635226,1.5534148335208002,1.3932072088332799,1.57550295760104,2.7752356286773106,2.56336441610866,3.6632456640975,5.51965634462242,8.28821704193925,8.57197159784846,8.03991455531758,10.193216916875,8.241102404519829,9.191061801948711,9.22348728431468,9.76323696094051,10.077575690828699,12.2275056023839,12.1659285441496,13.165556852570699,15.5446066339678,15.850535768975899,16.7437265624542,16.6535060626262,17.5868491922823,14.23385086549,11.7833619002035,12.1032672994957,9.89772478322059,8.921731689137118,,,,,,,,,,,,,,,,,,,,,
EAR,Early-demographic dividend,,8.02486959784171,7.3895711626034295,7.6053054127909006,7.89465471196841,6.9082984563515595,5.77562292479706,5.23205396924695,5.30258596734258,4.65536300435927,5.59104303633688,6.6194893814072,6.234548179607001,7.1445950382883,11.418618771217899,10.9368549347632,12.7252411011323,15.899657058563301,15.1193387143921,15.8471953900018,15.6433188255896,16.215694777558802,16.045483721347498,20.056918639192897,21.0283416525426,19.6887303751965,17.6655499297042,19.8730575916193,,,,25.243979914816798,,,,,,,,,,,,,,,,,,,,,,,,,,,,,
EAS,East Asia & Pacific,,,,,,,,,,,,,,,,,,,,,,,,,,,,,,,,,,,,,,,,,,,,,,,,,,,,,,,,,,,,,
ECA,Europe & Central Asia (excluding high income),,6.92474085797495,8.50624047910538,6.195576573361159,6.7546880044866295,9.14905146523285,6.93053328512156,5.21480442546628,3.9109438010175,3.9932501756689103,5.5801492255540595,5.39382304490298,5.022713094854731,4.936571102887691,9.13223124635275,11.1983765232232,8.54897903460018,10.2077842622225,12.8174225343999,13.7555561243948,11.0781093995393,13.5102251218644,12.827577330168,9.741604817905001,10.207963966346401,10.383497450562801,9.04285255841997,18.487105436036998,23.186762549639802,22.562712704840603,22.136100155969,26.8881391549577,31.9917768627355,25.5688008459158,23.467064195528398,21.0531281714891,15.0351642189993,15.584687755761399,18.4967891735148,12.955512912201199,,7.46861219136505,5.977418334338651,4.816816223711339,3.6961255357917593,3.4434630337364704,3.2689222543039196,0.0,0.0,,,,,,,,,,,,
ECS,Europe & Central Asia,,,,,,,,,,,,,,,,,,,,,,,,,,,,,,,,,,,,,,,,,,,,,,,,,,,,,,,,,,,,,
ECU,Ecuador,,24.208250919854002,21.265970408073798,20.5141629448089,15.1093208373381,14.705903525228601,6.99078650351961,6.67278059714215,6.47729982717854,5.778210687096831,4.9220393200962,44.0157588477482,8.21554124243649,12.100985850917699,17.8477067424902,16.4233010052297,23.891636316743302,20.1311647833859,28.287358867629298,25.027446485637103,38.1163475334034,29.8433553989805,33.9136707547464,32.9722090369221,22.567278400208,29.028449040995003,19.0830475752297,20.933218452728397,24.0820663069544,30.814221954624802,31.226567207179798,32.771653283737,37.3553782344102,30.587221736842103,38.881693019079705,29.269152921044697,34.6872101077078,20.3364828220402,40.7775107607901,31.0671959699499,19.0729843966911,38.620319357839,12.931551064196999,7.621071313491581,6.09301138427155,,,,,,,,,,,,,,,,
EGY,"Egypt, Arab Rep.",,14.940406266338401,14.059642309769199,14.1817196366371,18.022348994330603,9.436777782794561,12.352522060475302,7.33977677838357,6.024647777350019,7.50417665502799,5.89921918083497,6.23825098638188,5.475386897484361,5.69829312448907,6.0438984946675,6.84397627188779,7.28024240302122,11.1460601069835,11.0021066788826,9.53516886048952,8.520513390979449,9.96940006114542,11.192659475778802,10.3939129666935,12.5196738543038,14.578137458552401,13.950801829812601,14.957239322709201,17.890980012194102,18.0734995062251,23.7288195535507,29.0200527181751,24.921815494149104,15.5735178286075,32.887454902849804,29.485850127399804,21.9819315566177,18.939208812266603,15.561517375035,15.483430628689199,11.4178420708588,11.129164434229901,15.7127855202812,13.6332672780511,,,,,,,,,,,,,,,,,
EMU,Euro area,,,,,,,,,,,,,,,,,,,,,,,,,,,,,,,,,,,,,,,,,,,,,,,,,,,,,,,,,,,,,
ERI,Eritrea,,,,,,,,,,,,,,,,,,,,,3.59393624487437,5.299090060889,2.92491409478567,0.226757893765627,0.0,0.105442803141601,0.0,,,,,,,,,,,,,,,,,,,,,,,,,,,,,,,,,,
ESP,Spain,,,,,,,,,,,,,,,,,,,,,,,,,,,,,,,,,,,,,,,,,,,,,,,,,,,,,,,,,,,,,
EST,Estonia,,,,,,,,,,,,,,,,,,,,,,,,,,,,,,,,,,,,,,,,,,,,,,,,,,,,,,,,,,,,,
ETH,Ethiopia,,28.7464163127765,21.2206997212483,22.220610183494898,20.7809645686757,17.285584559919,11.8159320249646,10.672371074020901,7.133962354276839,5.850570836283589,3.77537523952486,2.7831395266612406,2.91661050579193,4.62067160287382,5.80116771403063,4.29923075832474,5.509174773108879,7.16333021865149,7.90545047703554,18.389731133101197,13.631698555278803,16.1726445471657,12.085159703852,9.863671720663591,41.4983617028131,18.3341303032772,15.2160679246941,17.9275773275965,22.716381328813,29.0271058233212,37.6459741643541,39.7117383895043,43.7504031290323,36.017208916063396,29.0200276416507,23.6363708015096,19.668635850492002,17.682083240001603,11.649206978361699,9.088518014705539,6.3365931354950895,5.3335087161931,6.72808703755383,5.76214801680683,,,,,,,,,,,,,,,,,
EUU,European Union,,,,,,,,,,,,,,,,,,,,,,,,,,,,,,,,,,,,,,,,,,,,,,,,,,,,,,,,,,,,,
FCS,Fragile and conflict affected situations,,,,,5.89620781327176,9.07888885063753,5.47994357641186,5.32897713012377,3.9574136587899202,4.17047371901879,3.8408995523554,5.014859234005121,3.96350273657771,5.87802912464326,8.34646530020548,11.155213970468,12.740440751140499,15.525195433503301,15.5264807640182,15.501921365267197,11.2776751445925,15.1511550149316,20.355415534775897,13.0113168820143,14.803734300021999,16.8461052700613,15.4249604894242,14.510812668564599,14.6965010595669,16.6060549278979,20.100286414734896,18.975323952015398,25.408905556670497,19.8040769245243,26.7699981895641,20.31969295256,18.5835955705244,17.0843672239607,14.327745016359,8.60473056591578,7.267114366697741,5.80827668396734,4.68448494202982,4.3389565598018995,4.5060131098840595,5.438494755771691,4.28990683950774,6.04227479530578,6.52898505912529,4.19378873378574,3.14451887045535,,,,,,,,,,
FIN,Finland,,,,,,,,,,,,,,,,,,,,,,,,,,,,,,,,,,,,,,,,,,,,,,,,,,,,,,,,,,,,,
FJI,Fiji,,6.36381424681424,1.9356684480169999,1.7020664378211698,2.40254845372527,12.8291800634636,1.91048428528427,1.8086675017499798,1.57175821851305,8.0996667353556,1.26342101786477,1.76265325497876,1.15120052990016,1.55319017582393,0.7900792553787671,0.7550000877095551,0.651196274780725,1.1058437863760702,1.5276136959079099,1.58101433984374,2.31392538567197,2.62160987114282,2.20785266600346,1.5367111721001,2.1283346128554,3.73141165358509,6.170675769243231,5.84757271065956,6.950800144380269,9.330378346384279,9.01059699666226,8.3690764325771,9.69539930549032,11.4563365534555,11.2584063973767,11.42802027044,9.837652984812431,7.50055422600903,6.38792250185117,4.613888411106191,4.94304042719044,3.0007231279802205,,,,,,,,,,,,,,,,,,,
FRA,France,,,,,,,,,,,,,,,,,,,,,,,,,,,,,,,,,,,,,,,,,,,,,,,,,,,,,,,,,,,,,
FRO,Faroe Islands,,,,,,,,,,,,,,,,,,,,,,,,,,,,,,,,,,,,,,,,,,,,,,,,,,,,,,,,,,,,,
FSM,"Micronesia, Fed. Sts.",,,,,,,,,,,,,,,,,,,,,,,,,,,,,,,,,,,,,,,,,,,,,,,,,,,,,,,,,,,,,
GAB,Gabon,,,,,,8.49922098218233,6.0660283835229505,11.997792972759,4.15178474910969,3.91158517733882,4.77783536906894,6.15559461971952,28.5199636113714,12.1298775690683,,3.47481832351412,5.63093443690686,10.9479368813716,14.987346473276201,15.8310508401372,9.227935584876858,18.021725909430803,12.935603581526001,12.5684053985893,10.3296391170195,14.7369754156347,8.64249184616786,4.18896676986541,14.4262712693591,10.1230094844622,4.75503943316353,5.2268145130257695,7.11071690426968,4.714798263640049,14.6581652926081,10.6043343339889,11.629726283617899,9.94026435544868,12.120661042411301,12.2484534817147,16.3811655979136,16.0742246051327,18.4459553112356,,,,,,,,,,,,,,,,,,
GBR,United Kingdom,,,,,,,,,,,,,,,,,,,,,,,,,,,,,,,,,,,,,,,,,,,,,,,,,,,,,,,,,,,,,
GEO,Georgia,,5.1589245954008796,5.17908080068105,7.1803702449276505,5.97398605897148,9.714068123472721,7.591372281761481,9.232711634986051,6.32919502572813,11.9778268820896,6.2937656230333205,6.849710645629389,4.77017805946143,4.375983966301201,8.83440938354583,6.877522178023731,11.838273632105501,10.320779306900901,9.16572330691471,7.240115500020879,12.2125008643105,15.0392643441541,23.255533700198104,6.007631467612669,,,,,,,,,,,,,,,,,,,,,,,,,,,,,,,,,,,,,
GHA,Ghana,,6.94414099504231,11.1977315200895,9.222595271893821,8.398898129624179,5.593996886455559,4.7971964170199195,3.8619947192062902,2.6834821205177595,2.19754651198694,2.8189613278821497,2.87995973360789,2.85357910520994,3.35816850623115,5.01881172116839,7.93043145697718,7.470685517067291,7.129123820184879,7.25771033199955,11.3433574382535,16.9559292186715,18.92521142949,20.5388051594747,30.375285858717998,25.0742080900417,23.267637731118803,24.3311802271741,23.195232434905602,25.881732329156698,25.582006514840398,36.450279099915704,48.455320089485504,54.9924595598206,43.5178648052091,25.540971953326,20.9609229881657,18.925952705574602,27.394087520938,10.974868041363802,10.0196729406482,11.610820699035498,8.89483958882979,7.414148700411121,3.71584761155977,5.80880204494967,6.485420512163,,,,,,,,,,,,,,,
GIB,Gibraltar,,,,,,,,,,,,,,,,,,,,,,,,,,,,,,,,,,,,,,,,,,,,,,,,,,,,,,,,,,,,,
GIN,Guinea,,2.07883055885994,2.41922098134097,1.96261793004437,3.15203053377534,5.69679710241816,3.9491665601533996,4.50084824762315,8.354697317048991,13.116328817508302,6.80495993671499,12.5959746969313,10.548463966564901,13.142723211565402,15.456733760968001,18.6452016901712,20.5640435730909,13.991544618596699,12.248950541061198,12.037662673408699,20.307348018012604,16.0646980555814,18.344544639122,19.7381045767352,14.5032840191551,24.118028960834398,13.9879481519887,10.6510345251146,12.0912939879379,15.642860710492199,19.6898726449297,16.2845179350974,21.5326717330508,26.248098880318498,11.767772845906999,,,,,,,,,,,,,,,,,,,,,,,,,,
GMB,"Gambia, The",,13.3229162880936,13.515509408603402,16.870778238410598,17.2086284820416,15.4316530241117,18.260590679278103,10.977563555542,9.384087895911211,10.4673874521159,8.41266697717588,6.7196428641628305,5.1364366720976395,12.980190686386399,14.3499778047192,14.643513195944701,20.535364969034898,14.4990141693131,,,,,,11.2896848400612,12.0600605342433,15.0859244994497,13.3864850393948,11.1364897376063,12.359175723533099,13.216906013891,21.785778948063,13.658432020497699,14.6086642883276,19.154404887138103,31.3225541287038,6.95135488380823,7.904185531261411,14.5526398054743,17.1811010892098,5.12176227244645,1.86049124999217,6.46269007764112,4.73629115489099,,,,,,,,,,,,,,,,,,
GNB,Guinea-Bissau,,,2.87983699083722,2.82644023297975,3.5178919701317595,1.8116559786811497,2.24008976796985,0.9543991206819649,4.653217508912871,1.8318926976088898,12.1401505789585,7.0793178139913895,5.62850985319982,7.35137131879014,12.496570406039698,6.58480045894697,11.588827156777699,10.5391339620694,5.4338955893307,6.42255296769809,,,,14.459936862469199,37.2899040952048,51.08474383237579,19.144503091190103,13.9498716951788,34.6948485856905,64.6898417910448,22.0985429118774,46.9602722868217,47.838589937106896,56.159116883116894,60.6836226804124,33.181979005524894,11.8398732283465,18.9049549019608,26.857839655172402,,,,,,,,,,,,,,,,,,,,,,
GNQ,Equatorial Guinea,,,,,,,,,,,,,,,,,,,,,,,,,,,,,,,,,,,,,,,,,,,,,,,,,,,,,,,,,,,,,
GRC,Greece,,,,,,,,,,,,,,,,,,,,,,,,,,,,,,,,,,,,,,,,,,,,,,,,,,,,,,,,,,,,,
GRD,Grenada,,,7.992218167058669,9.49077802507735,8.978091912925711,5.12065611424626,4.220751289527509,10.4076840275624,6.836168355170679,12.3435182372329,13.4610323731038,11.469070850030501,9.298233808420552,8.06122675534688,8.127702644129268,5.814711015563709,13.5427086336306,16.5379748214524,15.4852111874922,7.968548085346991,5.63711402656703,4.335539549255411,5.71238022677714,4.81691939201731,5.53752963586958,5.805295233572219,6.2433631735931305,6.801385759193191,5.9414731863468,3.6082251198466,3.9491634937238502,4.7714513715394995,7.80662226943264,7.23709241604944,8.3193749675184,11.382709995224099,12.0007145631068,11.329781313131301,6.65934464751958,3.23803948717949,5.51726777493606,4.80375922973579,3.32935505952381,2.1344009272196103,,,,,,,,,,,,,,,,,
GRL,Greenland,,,,,,,,,,,,,,,,,,,,,,,,,,,,,,,,,,,,,,,,,,,,,,,,,,,,,,,,,,,,,
GTM,Guatemala,,5.52091565850549,4.27675685654512,5.94272049047069,5.3906949966642905,4.956930369980389,4.533373289294371,7.07028145935294,4.62649023785192,7.41897613278833,5.50352257386408,5.97724661458156,5.40473872685307,6.58876166184846,5.89714235278013,5.7176044491285705,7.6228303156223705,9.56732043680023,8.8802394280757,8.249518528333889,7.54102470250509,8.62434715856368,8.23101888379632,9.28404684292761,11.3541864737195,10.8025637944251,11.9515808411215,13.857527054252401,25.601753991254803,17.027290420494097,13.595801536137,19.8906801278526,27.6846118167141,29.952630223592898,31.9128516206782,27.5038090573323,17.029734451316198,13.369240929460599,8.89033683889651,4.37204272888132,2.87148309705562,2.87203608247423,2.5881698910384703,1.7855578271028,,,,,,,,,,,,,,,,,
GUM,Guam,,,,,,,,,,,,,,,,,,,,,,,,,,,,,,,,,,,,,,,,,,,,,,,,,,,,,,,,,,,,,
GUY,Guyana,,4.193082060062411,4.77255866656279,3.3992696207885897,3.11485582276392,4.0070806435606094,3.62114973431688,2.92972234931557,8.16686830630275,2.74505675382329,2.42142228555674,1.95748881948558,2.54570073488367,3.06361898973607,4.1576890202057095,4.838478536993531,6.28099376808517,8.51169356235997,9.35627696210087,6.48471158052434,9.71463958181021,11.3150908449669,18.9754211791643,17.185292438764602,14.264157679558,16.900878546203,16.3235027030674,17.1884836575694,18.660938736060697,,,,,,,12.9099515301981,18.6363224115284,24.4819468390862,21.140440315737198,26.1559316613444,23.044046758253998,31.871357783541697,16.990158255429403,13.0286685685562,,,,,,,,,,,,,,,,,
HIC,High income,,,,,,,,,,,,,,,,,,,,,,,,,,,,,,,,,,,,,,,,,,,,,,,,,,,,,,,,,,,,,
HKG,"Hong Kong SAR, China",,,,,,,,,,,,,,,,,,,,,,,,,,,,,,,,,,,,,,,,,,,,,,,,,,,,,,,,,,,,,
HND,Honduras,,7.51038087916601,7.175208696989079,5.66575287701203,5.835031503845871,4.80469348777044,4.373530121317049,3.18378131466109,2.04806809369056,2.0658745625637702,2.2324812988142497,3.78320001196756,2.07048715131606,3.4244363945836604,3.81155954208534,5.80336500227721,6.563698398672599,8.362958807101329,7.5882244328116295,5.2165508572288095,6.67260143706382,13.4695982387814,17.5333347675589,20.4473451578668,27.4009216148066,31.528815553955997,32.9337891073909,29.2997541327312,33.6135660288383,28.0520439169983,34.37072168628939,12.5483576760044,31.5663551536553,30.968082803273603,25.454499151053902,21.964539193941,17.424978833343,17.1977135284373,20.4900872112317,13.8436790190434,10.8556949299705,13.1531629422719,11.3601385704176,10.7909533552244,7.6327504046617,6.513015647712701,5.51161282774553,,,,,,,,,,,,,,
HPC,Heavily indebted poor countries (HIPC),,7.42837448878585,7.755481858102581,7.26879675051688,6.84712612062707,5.511601923015849,4.06857342029565,3.48564836187836,2.8123860327409904,2.57236660193905,2.9222077421281294,4.24601029566136,4.47076036590102,4.35116539635513,4.677283726343839,6.410854734724031,9.2144083294782,9.62288026228507,8.25263622704852,9.96761811119022,12.127951812841301,14.169448197334,16.7498218887981,17.8491522897036,19.993575551989,19.694223436292,21.6202552353208,18.572451226339602,17.9175668106807,24.600432762007998,22.0677232222122,21.261616401769302,27.712170808295998,26.9618702934482,26.270571048087103,21.8643912834931,19.727410392172303,19.6178820150784,19.649270701645,17.604667525172697,14.9039891804822,13.7145100387416,15.0682187262385,11.3103666868005,9.533807861355,8.454947871420929,9.22254238990332,10.016905986265698,9.98562991077135,13.254290168956,,,,,,,,,,,
HRV,Croatia,,,,,,,,,,,,,,,,,,,,,,,,,,,,,,,,,,,,,,,,,,,,,,,,,,,,,,,,,,,,,
HTI,Haiti,,1.18346780995518,0.978657419401679,1.02016856728489,5.3301295734553396,1.9325932361178602,1.3954294948346102,0.8025422469606149,0.38196479892639706,0.38502451860031894,12.5125667581076,4.22492960750332,6.137856803370039,10.0094551715011,8.06756839595069,9.34877353407814,19.1086922941865,11.1919194832283,6.30811460460698,5.4943337760569095,8.29405078419694,9.2538077400896,8.26440369799692,9.335123845950939,15.0759893528184,53.880051102100204,4.655467980295571,2.6553776573219303,3.16637041629761,10.5018555575206,9.86719489073561,21.7377428950203,20.6021050160085,18.7508329238329,16.223242566246398,12.069492958981,8.811270908581411,7.622513986388861,8.29931309084229,13.2902102472809,9.33188078704482,10.736680892350199,12.897066442136,18.230883861804198,12.1960781909271,9.000880246740591,8.50966673449658,10.016905986265698,9.98562991077135,13.254290168956,,,,,,,,,,,
HUN,Hungary,,,,,,,,,,,,,,,,,,,,,,,,,,,,,,,,,,,,,,,,,,,,,,,,,,,,,,,,,,,,,
IBD,IBRD only,,4.87292027087518,4.78872704721937,4.3474609417561,4.564746741186441,4.92009378336429,3.7811406874519102,3.2762886750180695,2.9604760059490096,3.03947547890261,3.6240358592854,4.08956981790456,4.0080147423339705,4.394661653295089,7.50850389106333,8.39855500685287,8.36034990121669,11.980515189386301,13.2450429930268,13.361878708813698,13.8820765046006,15.5446860719953,14.1379273492476,15.2700850026094,15.100366034172803,14.714037894444802,13.0265432275253,15.8111798614642,17.4016513032675,18.7973786068728,20.0354438012568,22.28787657715,26.276184745852,24.6039681099512,27.406694809896898,21.958514862909304,19.3408565354684,19.5881781784448,19.759667382152198,18.0477995045777,,18.5898869818817,14.164424490741501,9.70934575417884,7.31620951271992,9.70883735611191,,,,,,,,,,,,,,,
IBT,IDA & IBRD total,,5.02546870193643,4.8875658784815,4.4464185703337,4.62474163486901,4.91358257627,3.80297721269831,3.35065136420388,2.99074852124785,3.0174371105385096,3.59223693958929,4.08875770375285,3.9695235558586495,4.367126174722951,7.462195109051629,8.455544809059019,8.36704573461714,11.803136389717698,13.0272356893421,13.227274227342699,13.705566140581,15.308353601466,14.1004512878274,15.3238922043936,15.1858367414833,14.859657473661402,13.4855209662026,15.817950436798599,17.4163107820018,19.031669100187603,20.184878531487602,22.2496348204278,26.241235596686398,24.451282451195997,27.393754172400303,22.336662667349,19.634654156827,19.603513443460102,19.1948299547145,16.9306944039358,16.8709706116707,16.5293686731282,12.9829394685709,9.04880724121225,7.69786993439366,9.51119440027519,,,,,,,,,,,,,,,
IDA,IDA total,,7.873590301427719,6.57806623268685,6.17283939381996,5.65765445281715,4.80084118814602,4.16056158529358,4.579347534615749,3.49076665377764,2.6663017018941497,3.1202368288386695,4.07656524537677,3.37661887163231,3.90808050642273,6.72868885524528,9.29930404210291,8.48031126805454,8.89539094703523,9.60371103734875,11.1765727644556,10.930692640917,11.750981873471902,13.4322726475712,16.2407461543973,16.660414752795,17.2661949801934,19.436274753475303,15.8825531441343,17.5494098866288,21.0365289494917,21.4048640212353,21.9165779360632,25.9433447011582,23.2529283420322,27.2966105900216,25.026804885904603,21.8800638076866,19.7197616434232,15.1334802299557,10.8475601894081,7.67144600724928,7.76343611660059,8.10580442194587,6.31643748687384,11.6930296005638,7.54917008642551,9.22254238990332,10.016905986265698,9.98562991077135,13.254290168956,,,,,,,,,,,
IDB,IDA blend,,11.3889095691276,6.80443829476672,6.66322763614646,5.72800734670933,4.92598421891788,4.27381072077777,4.5625593911196205,3.24571291676309,2.21573029577512,3.00787383366682,3.64953281226305,2.56160504353171,3.50483738572814,9.22081707971988,12.602384963973,9.45650631424228,9.453090063314221,11.1955630225824,13.2409279413477,11.4898825313311,11.7258256292923,13.774411663397998,18.3071262606088,17.6633713430558,17.9225109721373,21.9146494087288,16.1333275894829,18.1563041349187,19.5839803397724,21.414388548694397,21.4847971592583,25.694084710256,21.097614280033,26.7505518289118,26.8524801375309,23.737159111940397,20.7052338909841,13.7096570578994,8.18933574941542,4.88771774378655,5.12865728629391,5.050287412694559,3.8901048621998195,14.7228818469539,5.699590420805889,,,,,,,,,,,,,,,
IDN,Indonesia,,10.1910331004373,7.857649917965139,9.18262765596297,9.30510134897923,8.16927815983652,14.1069053975472,5.579915752713241,4.613683683599009,4.4402913515516795,6.594233297187659,7.7582116504095495,6.34870002224967,8.59431892216327,15.809520096436698,9.94175764695041,14.410792841537301,12.820053474168198,13.7203395928128,13.7803138198683,11.227183166785,16.678227745200502,12.889578756023099,13.7017454496574,20.2586849145645,17.500493828947597,19.0847682562733,21.4484962840794,21.953047138534398,23.7620315491101,25.6218926104228,30.5652157191767,32.9687613809078,30.263034883708603,29.3997637878788,21.810449743284195,14.723175720025301,12.755753589549998,10.5112059701984,8.19648604510009,,,,,,,,,,,,,,,,,,,,,
IDX,IDA only,,5.594906948599429,6.44627308844198,5.8909803828557195,5.6185752363866905,4.72085382744596,4.070027543673721,4.5929030757921705,3.7089051067783396,3.0947335763227497,3.21411118054856,4.405447391073539,4.13333306661502,4.32205302751594,4.0225735115645,5.35924680564255,7.151008853714759,8.156981475094769,7.7805968553907,8.689202136934089,10.2185094457671,11.77970194012,13.1597457984284,14.2983009954614,15.5832261937053,16.602960398004,15.6678203247555,15.446966732080199,16.3995198058761,23.7530294100839,21.3868094204187,22.5933483623997,26.3160592111485,26.5101262823138,28.0562964128363,21.3308669566461,18.387095317547,17.9047076482103,17.8763590268033,16.8402364564837,15.328022244344899,13.6215972725678,13.6916064317333,11.619097321798902,9.72738814710647,8.10438030353,9.22254238990332,10.016905986265698,9.98562991077135,13.254290168956,,,,,,,,,,,
IMN,Isle of Man,,,,,,,,,,,,,,,,,,,,,,,,,,,,,,,,,,,,,,,,,,,,,,,,,,,,,,,,,,,,,
IND,India,,2.91982574853365,4.2326382695859,2.7834170248543195,5.06404418855236,3.0858055771160195,2.70826109311248,2.25526710697942,1.68118836519349,1.7610880638326,1.74480879947485,2.42993180000253,4.67088966817266,4.0867419726260295,3.0409734003030096,9.68673187832864,7.72064797144166,20.437057860313498,16.0936630679547,12.787372380329199,15.3785252750562,15.5898678884257,22.490601028190603,24.5403661403625,25.411795607648898,30.544647637518302,29.722209214705302,25.197401351110802,25.4384275810079,26.761872835577197,27.1649347717067,26.5236308066954,26.697709841237604,27.8445018083083,28.483108443893105,19.147050998157198,14.6672021030753,13.505419317598,10.9856459244786,10.100158204858,9.27104075857953,10.695918182962,14.216236425873499,14.5944441988572,16.8863022716248,13.8880238001686,,,,,,,,,,,,,,,
INX,Not classified,,,,,,,,,,,,,,,,,,,,,,,,,,,,,,,,,,,,,,,,,,,,,,,,,,,,,,,,,,,,,
IRL,Ireland,,,,,,,,,,,,,,,,,,,,,,,,,,,,,,,,,,,,,,,,,,,,,,,,,,,,,,,,,,,,,
IRN,"Iran, Islamic Rep.",,0.177565250933626,0.14926739554251597,0.42422317643655605,2.09469681249612,0.6707995369130121,0.480552870237836,0.3965967403183,0.306038385918916,1.21880767527287,1.7054808360236697,2.0509936835686395,2.4859855898292498,3.0213788863614703,3.12749680850163,4.31610924187797,4.48398113071571,4.539623585472911,4.6808753271028,3.58727055721458,9.15988923202018,16.355980824452697,16.7259434720296,30.2149466460402,26.1238455764775,27.133501406923,13.1653164334966,2.9693190685995297,1.3794965960220102,1.15112509876164,1.24551643362876,1.22847784134304,3.55320900948461,2.00956484416741,4.74880923887889,2.64071688981122,2.53911132903723,2.91620834734261,3.08632679414082,5.68523705767204,6.90378675477865,0.0,0.0,0.0,0.0,,,,,,,,,,,,,,,,
IRQ,Iraq,,,,,,,,,,,,,,,,,,,,,,,,,,,,,,,,,,,,,,,,,,,,,,,,,,,,,,,,,,,,,
ISL,Iceland,,,,,,,,,,,,,,,,,,,,,,,,,,,,,,,,,,,,,,,,,,,,,,,,,,,,,,,,,,,,,
ISR,Israel,,,,,,,,,,,,,,,,,,,,,,,,,,,,,,,,,,,,,,,,,,,,,,,,,,,,,,,,,,,,,
ITA,Italy,,,,,,,,,,,,,,,,,,,,,,,,,,,,,,,,,,,,,,,,,,,,,,,,,,,,,,,,,,,,,
JAM,Jamaica,,32.831488746931896,18.0771421441838,24.451606110224105,37.2880324310085,27.5415195975974,28.4817840696023,22.818824141847898,22.8356882398732,27.2971434009455,19.6156362034008,29.268320440282196,15.751232828545401,18.7770223010838,14.272621946147401,20.99002373865,19.615637944286398,21.825313058517498,23.7323350027307,19.454029891304298,15.4250810556378,14.983909938791802,12.3486492669699,16.3645025828281,17.8422626345715,17.8119303714165,18.0357487391471,20.907398261843102,28.8117932650839,29.765365078941496,27.0745324084828,30.5146556943753,40.0726287238246,44.273495955207395,46.029078121899396,37.3683832490918,29.612963728280395,27.5243839063204,24.700455269491602,21.64782304974,17.5880692388858,19.8171492833156,18.8218933834844,16.210047189672302,12.2438008378407,,,,,,,,,,,,,,,,
JOR,Jordan,,14.656716224821,10.0940573117753,9.757830011607311,15.152938018853199,12.7001611475228,7.011615111594759,4.89912546422958,5.066747580370389,5.15886381757626,4.68359579114658,4.72951056555916,19.451386796102103,6.7568117835868895,7.0925791985984805,7.941122073007049,10.3313759672051,21.2646358342316,11.453373441014,13.632195546500899,14.3493564039132,13.027931054187802,21.2949269404123,21.678387604153105,24.9825376642654,15.491068405503302,17.3774973716388,19.440034743067397,24.4569079901405,24.5940116415527,22.116129524787603,22.767761977350197,37.602294805278795,30.074479703033,28.7556262808167,22.3009266727844,16.889200192335302,16.1067017679549,11.1254602871066,12.635303734812698,10.6552076864431,10.306362720294599,8.38173336633986,7.254300381717299,4.87802207707939,5.12037010826569,5.94425381081603,9.781649077398269,7.92429085614035,,,,,,,,,,,,
JPN,Japan,,,,,,,,,,,,,,,,,,,,,,,,,,,,,,,,,,,,,,,,,,,,,,,,,,,,,,,,,,,,,
KAZ,Kazakhstan,,3.67663101851766,2.12509628523252,3.3808050868081896,2.78327591446083,1.60005738819108,0.9793922971869681,0.597451088158546,0.35092830622666904,0.21341165704395,0.489770743365204,0.37272185214926207,0.25194807416942605,1.3554100341076498,0.823331803475913,3.98702060462185,3.8487369921671597,3.11668142277573,7.46231184748854,4.88476765649276,8.82008654053395,12.0044480298159,7.4979557137242905,4.4280704388995495,3.81609258262492,3.52613184876323,,,,,,,,,,,,,,,,,,,,,,,,,,,,,,,,,,,
KEN,Kenya,,35.1810176344652,20.7232058631261,12.2522359519925,8.40910847417534,7.11612283100168,11.147881197851698,4.56958734327237,4.520473733539379,4.00883558618274,4.13007657171077,4.82997541099341,4.63597699712061,5.922309008450769,6.756302010402441,9.46287965934956,7.38752998043337,14.4781446997628,13.661545889848302,12.4322904425072,17.3021745578641,13.042781119519901,12.3955275871434,12.938105522293,18.867152470037897,20.7266272332593,16.9775869322693,12.8271578640278,23.5000716291414,26.280011695908605,28.581341911082898,30.5404862486163,30.7506222968352,32.8242264354144,27.059001601687797,28.769267412807697,24.315457508716303,24.0420608996544,21.463907853869397,16.318711308530702,12.0583004727737,10.8600113982804,8.74002653126812,6.73100349166304,5.859728516724941,5.699590420805889,,,,,,,,,,,,,,,
KGZ,Kyrgyz Republic,,6.50773665666,6.66157407616844,6.06348639204659,6.329855687316849,5.40966133261129,3.6144103845822997,2.47626670244129,2.65740396217184,3.3652956590329905,3.66530873361719,3.5968419144550197,2.86439639153413,3.42954132143838,5.11823762491265,6.68325306746717,6.5559048380795595,8.37866542022957,11.245238333057802,12.366160436594699,9.82739548304191,5.7688867062724105,8.90194064740776,6.206270854698349,8.89320902918614,13.226455329753803,4.39361612653907,0.405348150147288,,,,,,,,,,,,,,,,,,,,,,,,,,,,,,,,,
KHM,Cambodia,,1.4282271961526,1.39996257582153,1.29437887612853,1.26428755702803,1.00176105789121,1.09262046098935,1.1161522596604099,0.9798295160306991,0.90128593601356,0.981413853904856,0.9380516138126891,0.754555744098665,0.5711393716092221,0.572510305437048,0.725559499512119,0.7983650385219179,0.947244369504769,0.8424803949089359,0.8578865558462689,0.662388793123078,1.1350903894962199,0.945278707239896,0.8731257124068391,0.910412295482295,0.672619675145572,0.152266221408966,9.588020007354801,3.8281442711648603,,,,,,,,,,,,,,,,,,,,,,,,,,,,,,,,
KIR,Kiribati,,,,,,,,,,,,,,,,,,,,,,,,,,,,,,,,,,,,,,,,,,,,,,,,,,,,,,,,,,,,,
KNA,St. Kitts and Nevis,,,,,,,,,,,,,,,,,,,,,,,,,,,,,,,,,,,,,,,,,,,,,,,,,,,,,,,,,,,,,
KOR,"Korea, Rep.",,,,,,,,,,,,,,,,,,,,,,,,,,,,,,,,,,,,,,,,,,,,,,,,,,,,,,,,,,,,,
KWT,Kuwait,,,,,,,,,,,,,,,,,,,,,,,,,,,,,,,,,,,,,,,,,,,,,,,,,,,,,,,,,,,,,
LAC,Latin America & Caribbean (excluding high income),,12.7903670514201,10.529353480071599,11.8587851465216,11.0178829643733,9.29339102523876,5.8991228393967905,6.48608584929453,6.797327741435059,6.152806960230929,6.97580091831076,8.887428819374538,8.04543721518895,9.45855316649674,15.9132199260166,16.873287904048098,16.2462058989993,22.0545714255802,18.871727274656898,18.2487649150989,22.966602479110698,23.037171598685497,19.2565648965856,26.8107039175084,26.8892834069692,22.5022049377818,17.998869989382698,19.4219349769593,23.253248708135,21.8591772440758,21.6610140538877,25.461628964195,32.3172432976986,31.916894850675202,34.9978912905744,30.2527862065565,28.6019927395723,30.3913218915707,32.709942397198894,27.762905400552697,27.110331471589,33.0300308256079,25.6518002271696,17.3330467425748,16.046833896114098,16.0614957154234,12.024093972627,14.9497099845523,15.231760939730899,15.788097062596199,18.3790281253223,,,,,,,,,,
LAO,Lao PDR,,6.6549058188698105,9.874566106605439,8.21037510841779,7.18658621158309,5.38565966695258,5.34389200378922,5.784235139701201,5.42857003022472,6.69247718423012,4.007055397973851,6.39452721345903,5.15959409740225,4.89242442094496,4.90925783204148,8.06070314466916,9.95866247952164,10.904691416705301,9.38373565745422,8.96835459152081,7.93557916065931,9.46839721659919,6.307220606308889,6.3378419212963,8.05872121896163,7.602015707898659,4.9473465098824105,8.31442876792508,4.777973597194389,6.177545824255629,8.59852896749522,20.2156322170901,13.5478735526316,11.538401986755,10.637051511335,9.20472843791722,11.587216977928698,,,,,,,,,,,,,,,,,,,,,,,,
LBN,Lebanon,,24.0787073498941,21.5624022577293,21.7126142584745,20.355131383096897,17.9067993130369,18.5314798696274,15.576077323148999,17.6249553940751,21.0058165424884,17.6069268239252,19.6283666071053,17.1811424723479,21.5360232162318,23.8860811868952,20.7506410739166,31.549978339625397,23.367781843175802,28.8384976095013,,,,,,,,,,,,,,,,,,,,,,,,,,,,,,,,,,,,,,,,,,
LBR,Liberia,,5.3779139002986005,4.727263036387139,1.7423965338540601,1.20138522585248,7.925306266456901,2.3982586984550096,0.9371202308861389,1.1728440950142098,0.746069405439398,1.70997861340934,5.811780844886219,119.680066158754,114.386759324615,0.41131679718754405,0.519694451413844,0.431179349436464,,,,,,,,,,,,,,,,,2.9059895009936803,6.12056558441584,7.77069075867612,12.158842831364401,9.820414984683561,8.33975545605244,6.1993959402648695,6.96843281110399,13.512331329533698,,,,,,,,,,,,,,,,,,,
LBY,Libya,,,,,,,,,,,,,,,,,,,,,,,,,,,,,,,,,,,,,,,,,,,,,,,,,,,,,,,,,,,,,
LCA,St. Lucia,,,3.6571642759170495,3.9777337924208798,4.74432961884946,6.59002146787623,3.5181103488740404,5.43874192045893,6.890642271240099,7.23392131177662,6.47900974890679,7.376348335018129,8.74517070437806,8.79227510159461,6.66622932782642,5.0684536236851,4.26795068789985,6.704959421159309,5.28682167238238,6.5787886928013,7.1770408817518305,4.23287462766805,3.54918969391599,3.34863489921211,3.3329302247296,2.8392053965234,3.0199288948472405,3.3063673662505604,3.43991120308617,3.3606367953013803,2.09451643456193,1.91520460664975,1.27575069147333,1.2710978050251298,1.11892064136126,1.20463069958848,1.11387343470483,1.30445462832338,1.4228180764773997,1.43965894607843,,,,,,,,,,,,,,,,,,,,,
LCN,Latin America & Caribbean,,12.7903670514201,10.529353480071599,11.8587851465216,10.7128370139291,9.909200713037,6.241224902180541,6.6531904244258,6.73121582433524,6.231354481471961,6.929452062963071,8.68196755623028,7.78754384863591,9.428927376907259,14.9306492509569,16.1662821762434,16.4141440865269,22.4595844350339,19.262613554631898,18.5810523674689,22.1731708286301,23.0532703554256,19.8493153456552,25.6559419523012,25.6596531028732,22.182654574277898,17.471862120708803,19.003757372086802,22.1255407568008,20.8210218868647,21.361438307358803,24.4276593486928,31.612674828825497,30.626412939629397,34.082896293074604,27.662484233372002,26.314628236149897,27.8595346092932,29.4829353401762,24.073231243474897,24.156743014566196,28.3328471353192,21.604101017983197,15.0669499567139,12.456393324086198,11.570272042267302,5.869945417749361,8.60552637650955,9.38201484880305,7.4128221435101,7.879243495935429,,,,,,,,,,
LDC,Least developed countries: UN classification,,8.062383321305669,7.574321943268889,7.25088560003638,8.30197601929732,6.688818406528469,5.6430731683289,5.5022330188434605,4.58033128616147,3.50887298457565,3.56182470579,5.393280546619639,3.5364731648216496,6.284079503502509,7.00539405707649,7.062719089645129,8.986702545673051,9.83319917557045,9.70712583587037,13.402394451294699,12.408956399814699,13.788667460484,15.657399221516302,13.175958819049402,14.4575241664906,13.7649578424681,12.133884457781301,11.703450988536698,12.162128780850198,18.2813278378717,17.4636163617446,19.6132814082751,24.3061090988787,25.253203744653202,29.0360028519593,21.683640339364,18.5255115275991,17.4047734007593,17.2545475957699,16.5320119285883,15.7456442224677,13.9795765968271,14.456262581849199,12.4634666364013,10.9451667555252,9.05054906951851,10.083949526053999,10.016905986265698,9.98562991077135,13.254290168956,,,,,,,,,,,
LIC,Low income,,6.39005497835098,6.08128961581846,6.21593571308233,6.6928141560608605,7.131186662309151,4.35349686746771,3.80915776502459,3.32482129307514,3.12704053285761,3.0927494670902096,4.47534254280746,4.798061653112611,5.61407121408224,5.3287301911542695,6.25986389382686,,,,,,,,,,,,,,,,,,,,,,,,,,,,,5.973499020121349,11.2895476454786,15.4614988111278,,,,,,,,,,,,,,
LIE,Liechtenstein,,,,,,,,,,,,,,,,,,,,,,,,,,,,,,,,,,,,,,,,,,,,,,,,,,,,,,,,,,,,,
LKA,Sri Lanka,,25.387593209033103,21.709390706765,19.224590829367198,14.6319544579372,17.3740628835895,24.262198551201802,11.931418554920599,13.325029448407301,7.8302558028936895,10.717536892206098,13.298165116611301,10.578844148231301,7.59210200800281,9.745517149181401,4.564805957152269,8.955930487758991,7.78961006605945,9.43213892304357,9.62718040797999,10.8516151112974,11.7206595580653,8.78048380390758,8.29368364311752,8.66918759401828,8.77610837225482,9.62680146982744,11.1639207375451,14.5632590883056,15.133666633586198,14.816003671677402,20.888238803250697,24.089173367920004,25.261694245932603,23.461057530757,17.734567860519103,13.937520945385002,17.1095259791448,16.0808066209309,12.718444589522901,10.732675150961802,11.456584891192401,13.544754545171001,18.2358044398667,25.119736235816102,26.4907221433695,,,,,,,,,,,,,,,
LMC,Lower middle income,,6.13274517101508,5.9039468925880305,5.58078667290232,6.390685455933031,5.84235414380223,5.79845260492591,4.727985099776901,3.75871642299546,3.3876536056704505,4.1484630881484,4.95664058287913,4.43709397122341,5.2685066567755,9.086877517275571,9.57645356503026,10.0715799079824,13.6782307587694,13.400672280944901,13.157346601002299,12.7040124139413,15.017171068573,14.635219803274401,15.5658406315523,17.9428142651821,19.697891160437802,18.9637845298402,18.8410833383675,19.5460411101757,23.9885687993289,24.3627281411556,25.9951145370039,28.779951497709604,26.3319722175628,29.762032739893304,22.6445848695645,18.7304422512147,16.9775927966705,14.517050776952301,12.616977375687302,11.639538736326699,9.43237983665057,9.47011736250554,6.527639189917389,5.69613741203571,11.185504062961302,5.26569745636137,10.016905986265698,9.98562991077135,13.254290168956,,,,,,,,,,,
LMY,Low & middle income,,5.02546870193643,4.8875658784815,4.4464185703337,4.64188554460671,4.79195970717856,3.72587150766091,3.2809611919479704,2.94358655550542,2.95531897358256,3.55473048210842,4.05142425187495,3.93222893713794,4.27322747106294,7.477848001665451,8.42075760306553,8.17576530276953,11.5290414200911,12.787032688011301,13.0010017664643,13.6786771757357,15.1232624865484,13.808933816315902,15.3274606799986,15.181276252873099,14.7474275095977,13.503930607469098,15.8292700363746,17.5669703076828,19.2485467964164,20.2135887959724,22.471870808965896,26.258614283024002,24.573012579813,27.388836834618697,22.833393847679602,19.9398240740733,19.8448879586769,19.4063450295959,17.5143481046743,17.2171941989313,17.1279278930338,13.4582904658426,9.165161319491789,8.15112011751561,10.6051709935949,,,,,,,,,,,,,,,
LSO,Lesotho,,4.579404949662231,3.81233370325074,3.3369824684049902,3.8926115927893696,3.68770793446756,3.0870269245677995,2.93882139882607,2.4404276365667203,2.09085359667524,2.09216952745051,2.59596002350365,2.23142049163033,5.9046171876483395,3.0448811433350498,5.70195074704916,3.6605641653072705,5.455597466340901,7.72955634544963,8.146702345184291,7.473272155444111,10.119296847907302,8.5169421124082,6.50338690850176,5.55996553692832,6.0645000914516,5.3671219715427405,5.27385507656356,5.18913123358132,4.4732843394009505,4.159669885452439,4.6098790245757595,4.98824515637131,3.45245796881377,4.60053738990336,6.6340296897620705,3.5117487985630698,4.6581530363927,2.20076501044232,1.16643126807196,1.33485114799093,0.8733766976647329,0.46915147789740397,0.229287196739121,0.315037105971596,0.7133170523071851,,,,,,,,,,,,,,,
LTE,Late-demographic dividend,,3.28889022870292,3.4551801501574397,2.7072357565713103,2.8017022022637,3.55903452539998,2.65028170881802,2.1257249031101,1.67412222406284,2.21085772347781,2.63998034713806,2.65926941387098,2.9024168013543,2.8047133066270096,5.0386585019939805,6.70150134665153,5.68248840214185,9.396866553008712,11.7535589501108,10.8428792319789,11.7478917633425,14.7807056078139,11.933740822240301,10.879122044310998,10.0724687725782,10.674597063041901,9.73254119182422,,,,,,,,,,,,,,,,,,,,,4.787989650876809,5.5386821335094,,21.2297433072764,,,,,,,,,,
LTU,Lithuania,,,,,,,,,,,,,,,,,,,,,,,,,,,,,,,,,,,,,,,,,,,,,,,,,,,,,,,,,,,,,
LUX,Luxembourg,,,,,,,,,,,,,,,,,,,,,,,,,,,,,,,,,,,,,,,,,,,,,,,,,,,,,,,,,,,,,
LVA,Latvia,,,,,,,,,,,,,,,,,,,,,,,,,,,,,,,,,,,,,,,,,,,,,,,,,,,,,,,,,,,,,
MAC,"Macao SAR, China",,,,,,,,,,,,,,,,,,,,,,,,,,,,,,,,,,,,,,,,,,,,,,,,,,,,,,,,,,,,,
MAF,St. Martin (French part),,,,,,,,,,,,,,,,,,,,,,,,,,,,,,,,,,,,,,,,,,,,,,,,,,,,,,,,,,,,,
MAR,Morocco,,6.58330765087632,6.77609547261734,8.36501947801657,8.62981131746311,7.543775451783309,7.542611168366371,8.26756467967691,7.067206742507159,6.73368519309815,7.50951288570833,7.02790309613965,7.77158311757225,9.74015893044632,10.1240961311589,13.8424524250704,17.4079478607181,29.6349227469003,27.729194416707898,25.2452840549091,27.1205098813131,32.853677067743,31.856948990482,36.709002542777,39.479042873882605,47.39837085346441,46.524610402220794,45.3942249930842,52.0696609542591,34.1973677086707,27.890784124539298,40.2210663122261,30.7794443724923,39.7536812845494,47.2358652115846,41.4393238185248,30.2704791674777,46.64031888186751,52.084481596265704,45.7378719043828,39.8886765463718,34.342696464731695,28.7022395297337,17.6607761380055,12.4457898064324,7.835337349247349,,,,,,,,,,,,,,,
MCO,Monaco,,,,,,,,,,,,,,,,,,,,,,,,,,,,,,,,,,,,,,,,,,,,,,,,,,,,,,,,,,,,,
MDA,Moldova,,4.5018996794577495,4.57371513992621,4.01240214874502,3.7759349914318103,2.9798920087634904,2.70478504679779,2.9687373397012595,2.6585757812229502,2.58646914800886,2.9738027749378104,4.06002026042912,2.8974344933653997,3.72856627516778,5.4041836552625595,5.0149541808933,8.3817103920685,7.32934965757445,13.7335706812664,12.349718536091098,15.621132516512699,26.5417561745396,21.022706789489302,10.3957584511696,7.73305253073452,7.614768201666441,2.05154570444659,,,,,,,,,,,,,,,,,,,,,,,,,,,,,,,,,,
MDG,Madagascar,,2.47016428130391,2.4464722461561403,3.01253100140206,3.24459915549812,4.29268683187334,2.6418918293838103,2.17232795761491,2.28452459376978,1.64871102283708,2.52994323133275,2.14398519663064,0.958270121576824,0.859275998645628,3.52711260926713,5.838425037912169,8.88385975214938,8.405303316409059,5.42076644519722,6.17161192905305,12.8625466574445,20.504735428631697,17.698084173425897,32.003900632550504,10.0415162167677,7.26341917197568,9.552831403575711,14.3574435657434,18.358558163804897,31.882052069765,44.3543853904638,49.4932794967556,52.2271485471311,55.972845372687,50.8484808828706,40.27926616504811,27.9945710744527,19.8842722066492,25.6975096987403,20.7044231111836,13.861436306907699,7.86222464189162,4.802386806469,37.7535536257953,3.2919422493072497,16.5863035705515,29.874724138944302,,,,,,,,,,,,,,
MDV,Maldives,,11.018367712469,10.796396974248,3.5398003501436297,3.1077278153215597,3.04572490372699,5.2190699248640495,2.4296248295458502,3.10573761439921,3.1431372167984106,3.03429770176069,3.4760094672058797,2.67940349427773,2.1322469873099803,3.7328919176836197,5.919325145387259,4.03882414659536,3.5201600599874103,4.18031548323895,4.31409679914775,3.99435070221955,3.77877822991067,3.56075905492217,6.900581931096309,3.0708620885160696,3.31127758668881,3.3754628964374502,3.73771902676875,3.0451966425915002,3.6395677134651203,3.98661860718172,5.60917405694811,6.6000357287180105,5.7298209125568,11.4256918691913,9.31690142231948,18.9415012956419,5.51518641655886,2.0325672727272703,0.899634630872483,0.43377684049079795,0.18504880382775102,0.33889609375,,,,,,,,,,,,,,,,,,
MEA,Middle East & North Africa,,,,,,,,,,,,,,,,,,,,,,,,,,,,,,,,,,,,,,,,,,,,,,,,,,,,,,,,,,,,,
MEX,Mexico,,8.28633865020152,6.213855314591,8.05359835338402,10.006399844216,6.367510374176401,4.4912355150208,5.4938349170825305,9.360247858931821,5.24008370156736,6.11527974629619,7.13405612436604,6.9148438424502805,7.1939267757338605,14.1457718614499,9.88268605333978,12.1075417012904,12.168523150885699,10.929674608179901,13.8350656155547,16.390474219348,14.060578693215803,14.248841607572901,36.3091042926226,37.100870643351996,25.692369026167302,17.7280303037864,19.042065507364,28.7004909231033,19.835567251221,18.3876075961058,23.5654110397681,27.2119295093534,26.265645551322198,31.907745298020302,31.8995326938872,31.315744162208098,36.1667897383849,31.553263207919503,28.728890629577798,33.5543542706466,58.1600739980655,,,,,,,,,,,,,,,,,,,
MHL,Marshall Islands,,,,,,,,,,,,,,,,,,,,,,,,,,,,,,,,,,,,,,,,,,,,,,,,,,,,,,,,,,,,,
MIC,Middle income,,5.01681529672266,4.87649439936802,4.4305781192601605,4.623431379392709,4.7719532496207595,3.71969778848504,3.2757891804035197,2.93997385269781,2.95349306591627,3.56171801705873,4.04508120926769,3.91927622035963,4.25932410024153,7.498961584828759,8.4425088629547,8.17074345342105,11.5437529458659,12.820835684117501,13.007183231003001,13.680445778842499,15.1265883542288,13.806332947383599,15.3286686432117,15.167038435790902,14.7366008254743,13.486455014593,15.8353736108127,17.5945812889715,19.264057489284898,20.2000453309946,22.4549012389716,26.226748533126603,24.5297519062212,27.3432968293889,22.8135927758417,19.940263832815898,19.8691484799003,19.411616556589,17.540827040182,17.3219765542107,17.2730844399088,13.508386124691802,9.060028740810619,8.172866325517539,10.589806668145599,,,,,,,,,,,,,,,
MKD,North Macedonia,,4.21613368819333,6.566631383242309,5.8435841105975594,7.0534057143791,11.3806560362992,6.477591605623259,10.756566714572301,5.22255259117389,3.7532777457390396,4.0836467983065,4.25611706675265,2.9304925701199798,10.5504834335549,13.863651713768801,6.148565451617791,8.025588146000839,11.215491279144098,15.354595388448901,14.018366965446301,6.6292446520098,8.823716723137471,10.0151434994687,9.77874084716473,4.95951446032257,,,,,,,,,,,,,,,,,,,,,,,,,,,,,,,,,,,,
MLI,Mali,,,4.75695721561588,4.0451922377333,3.5049792420445605,3.24931571165772,2.97235027206675,3.09327773482284,1.75196259502388,2.34212178711579,2.44693142568115,3.0857625137612903,2.6052465464557595,3.1709760531835496,4.32141123115753,6.72316553016099,7.89774752179402,6.392551955104179,7.4546723538596495,8.71608022528261,12.9134071634254,13.8488710600425,11.0690045960457,10.623503059276,20.760030716903398,15.794738994145401,21.142752217689498,16.0819875979268,11.939216054574,9.18308407142934,14.6554171255966,18.7302181247308,23.102020171373802,19.0299282483778,20.720444246743103,20.144138301956602,11.4114216777999,8.89988229866054,7.21689100606555,6.43516397167953,4.97471391195863,6.86650880305264,6.44411581867051,6.246313699033519,6.14666235403522,4.98320366428088,,,,,,,,,,,,,,,
MLT,Malta,,,,,,,,,,,,,,,,,,,,,,,,,,,,,,,,,,,,,,,,,,,,,,,,,,,,,,,,,,,,,
MMR,Myanmar,,3.44606860493792,4.83212497916703,4.29356402869355,5.39108910633708,3.4594502055202203,4.61588384437861,19.6673695265018,12.002675090996,2.6290683270582202,3.11102025954906,1.75654433044979,1.37498655529822,1.33163787779431,1.22286319378873,0.648443595864671,0.735160714043514,0.735903365760651,0.7311780857621479,0.634869536662928,0.968683710796229,5.530538716880581,5.74731650157907,8.43460918488382,12.573163235605,20.089315183636998,14.7306767982882,13.257429555018101,8.47489097909341,27.6942396573146,18.7736180641683,67.6476980027307,58.9338615357059,71.6209506018553,67.25501253927129,54.71965499363029,41.8182948538987,38.768745189303395,27.610202192924298,25.78939935571,27.6500230856248,29.5386403420482,24.5489823311341,19.9605389914406,22.007986684658604,,,,,,,,,,,,,,,,
MNA,Middle East & North Africa (excluding high income),,10.762335404159698,,10.176365705563,11.020074087349801,8.20732352161339,,,,6.354109550983731,5.560747892743451,6.38938420522221,,,,11.0524954207421,14.884275674330402,18.622408862560302,17.590700574359502,14.509382707318899,12.9967941583158,16.7714809028102,17.765469743530396,22.528612213952197,22.9661676513744,24.2648059544325,18.8936691724562,15.106294957678001,16.213886263576,26.5627059598686,25.765553442917,29.535292570096196,31.030223707808105,25.861992575413105,34.100794457016605,22.451350004148196,19.099699523618398,17.239331741652,16.4384860907193,18.0304490234941,,9.74484013983104,8.12792701722014,4.91451615139309,1.08857854155388,7.37410260696247,5.94425381081603,9.781649077398269,7.92429085614035,,,,,,,,,,,,
MNE,Montenegro,,19.9036678526523,25.6407768903893,12.5477081795999,22.413371336206797,23.913201495820697,12.613253921845,16.536953111976302,12.8398602765517,9.191312118704868,5.405365021390059,3.0894851085175,2.5447363372835294,8.17069978015712,,,,,,,,,,,,,,,,,,,,,,,,,,,,,,,,,,,,,,,,,,,,,,,
MNG,Mongolia,,5.417477383067321,11.035380860535,4.1528038266039005,3.45596418886797,3.05608845150142,3.6287284393312,5.04167491013811,2.8051783589244104,1.74973811246682,4.32694477750379,4.07727957092054,2.3014016249408797,2.12437421255996,2.4129976037030296,2.6980988047908103,2.9291129099754305,33.8393484135785,7.352363241238019,7.11132691958387,6.487987315244791,4.27698019199932,5.376395457023441,9.93704546468994,10.680999329949199,10.0989228828476,10.631373339749802,5.9466772796739695,17.124458853633598,,,,,,,,,,,,,,,,,,,,,,,,,,,,,,,,
MNP,Northern Mariana Islands,,,,,,,,,,,,,,,,,,,,,,,,,,,,,,,,,,,,,,,,,,,,,,,,,,,,,,,,,,,,,
MOZ,Mozambique,,13.406176686833,8.30416903608755,7.98469975258727,11.275579759085,10.7861331818662,5.71233855781497,3.8857020084301297,2.08773293503165,2.27080165598218,3.4682611988856697,1.46267880205793,1.06846855093073,1.01344690187457,1.4754673898294899,2.82454173838686,2.71586384626025,4.33510692190085,3.9398251828201496,5.09566716138079,8.05024105632887,14.3433460270101,15.6206957719633,17.9450552332693,25.0336781232648,33.4455226403061,30.3757541224077,31.472715285253,20.789014147554603,19.781107039167303,17.2969424949967,20.8194002946593,19.7227876733436,16.373423846153802,48.69927953125,28.720874850299396,7.82676911558259,,,,,,,,,,,,,,,,,,,,,,,,
MRT,Mauritania,,13.8694690546986,17.2093902706411,15.589019740546998,14.90583212524,14.024605322957498,10.812089653517699,5.731529097749929,5.1268826624773896,3.97919373139107,4.88034909808343,4.711783089579519,2.88650905597977,7.141725858995639,5.53360109366058,,,,,,,,25.7062700139883,22.9295582326818,21.9262851405163,22.055236998140398,23.839840050193402,29.2329332465244,18.9949219076087,18.827249507171,28.782555077342302,19.4891585728532,26.0078412268882,25.7968953493983,21.0067160970752,23.621214726293395,17.462838810347304,13.0411777037496,15.0614885359144,18.9988761921095,14.9786201321161,32.9233969153803,16.815300576674097,22.376713569562,37.6382370287931,22.165634189172202,,,,,,,,,,,,,,,
MUS,Mauritius,,,1.2577463166636398,1.5855026624822,0.9897039069166971,0.908076452011033,0.9584271609497769,0.6986105763045171,1.05324764820972,1.34200037441445,0.8498626796432122,2.26832690872435,2.37242104111198,2.54565193839535,5.35706814649236,5.28194612228437,5.289691266825,5.12069154324555,6.531852796848309,4.71790218648607,16.3784119448173,5.61827428340051,6.730661209926961,6.81423115664449,4.95160668102545,5.98257236699643,5.72944136040354,5.44311535681584,7.92396235985988,7.07733093042017,7.25624284323884,9.10183963170809,13.775259287383198,10.047861471526302,13.9616512963322,22.8608769879034,24.335214279438,22.018708612520598,16.2779088310719,13.919717074803698,6.52394155298488,3.94437068537105,2.5996750365362797,1.66345315566662,0.9933811478696769,,,,,,,,,,,,,,,,
MWI,Malawi,,8.30366842359747,7.39007221480612,6.60935300863246,6.311571654013151,5.517224440293489,4.08958834868558,3.1341815287103,2.03380584920707,1.37880200622551,1.64050213121809,2.8282069943597903,3.1214420729452206,3.6311038531316298,8.63938237811566,12.4261886781968,10.4460469925845,6.62697483236789,7.50967974266526,9.322315182749179,12.8986708054408,13.7957091413805,14.680724581647599,13.8932511702426,15.169201012859002,24.4067139943039,22.345001427210498,22.2041537048522,23.486550209651103,24.104409722660698,28.031336924680602,29.045022205622697,27.7746505831479,35.459690148553705,51.6730827988682,37.9957272576225,29.310745889373997,26.4743309793894,31.6811720071992,31.695389544124698,22.6332518773501,17.787359349171698,20.1152553932306,10.749208535421099,,,,,,,,,,,,,,,,,
MYS,Malaysia,,,,,,,,,,,,,,,,,,,,,,,,,,,,,,,,,,,,,,,,,,,,,,,,,,,,,,,,,,,,,
NAC,North America,,,,,,,,,,,,,,,,,,,,,,,,,,,,,,,,,,,,,,,,,,,,,,,,,,,,,,,,,,,,,
NAM,Namibia,,,,,,,,,,,,,,,,,,,,,,,,,,,,,,,,,,,,,,,,,,,,,,,,,,,,,,,,,,,,,
NCL,New Caledonia,,,,,,,,,,,,,,,,,,,,,,,,,,,,,,,,,,,,,,,,,,,,,,,,,,,,,,,,,,,,,
NER,Niger,,,7.78246427389132,8.47366997718932,8.286431452488019,6.18649752975214,6.15664854095536,4.044060629387951,2.42685687861034,2.13305534072708,1.34235802231395,2.48937624475613,1.5638993228717,2.0844023588388603,25.1387462073763,5.34545661273765,5.68755238724172,6.615215754070049,4.99535343442582,6.10620033217677,6.80460860802328,8.671686515557651,9.42732352279845,14.324323221145999,7.06512916056101,7.7953800053515,12.608285746452902,15.9658252388455,5.40958073426661,12.2687430440298,6.59421176849636,12.629479256860302,23.9192489965939,20.327893510668698,19.0554887262769,18.1264491138877,12.077689544061698,15.9733892679568,25.1910975047577,11.6239440420686,6.04960261754279,2.46222191030165,2.83417942242794,3.9469102554286404,4.51780745869097,4.71822547134012,2.8800398542445693,,,,,,,,,,,,,,
NGA,Nigeria,,1.95495131491034,2.1084342366310502,0.658620889821444,0.898555346250871,0.79673060207472,0.30768129191120197,0.395409007556741,0.25379696843474303,0.34297249792357504,0.376472989338741,0.7287293417873341,0.47532000762737,1.4423692844731102,10.980778826886999,15.4107430443099,4.47019555979303,5.925627997255759,7.82801221056347,12.459764431901199,8.20590766795106,6.97141661561635,12.5160827198878,8.37683690417149,12.6900580521051,14.0457198036604,18.319185469221498,12.837839538057999,18.154893984037898,21.3939966417063,22.255004768733002,24.061387867744198,28.225585347713398,11.6746498976844,30.9903203890096,28.3170237384131,24.763856151881104,17.2812402596356,10.9172629700764,4.62945006046059,1.8119529863291002,1.4442862045597602,0.8439852994029989,0.782970862103298,,,,,,,,,,,,,,,,,
NIC,Nicaragua,,5.3598252660445995,4.4034230688620095,3.91109293361884,3.68366459286193,3.0998784905733596,2.6140801654732297,2.2827159167963,2.08395308153072,2.3766618072507004,2.52497242317946,3.53366039725787,3.1002002791792798,9.795729819445551,4.60435441722346,8.204031544883291,6.20996277845282,12.7771543403629,11.926767622591901,13.9484779964033,15.948141074875501,16.304096409588198,20.7792488905257,38.57722777618039,31.610090547797398,45.395684943739205,40.881644444085495,33.3820855877617,27.189787594697,155.429415718391,3.4452970297029704,4.81755395683453,11.9393168604651,21.941244141104303,13.999769756944401,20.305146921075497,15.9477509669102,18.8480998216055,38.86097942919871,32.9107621217331,18.8354117509728,9.68968283079625,15.3448532449788,15.5890261563651,,,,,,,,,,,,,,,,,
NLD,Netherlands,,,,,,,,,,,,,,,,,,,,,,,,,,,,,,,,,,,,,,,,,,,,,,,,,,,,,,,,,,,,,
NOR,Norway,,,,,,,,,,,,,,,,,,,,,,,,,,,,,,,,,,,,,,,,,,,,,,,,,,,,,,,,,,,,,
NPL,Nepal,,7.33412910612127,6.6030699649273,7.3784000390352595,8.65970959779262,7.88550453378304,7.8225356346198405,8.59027441500856,10.028865440073698,8.99735950964327,10.412654179905699,9.97209566513944,8.24005463218328,8.606464894952671,9.68185903035934,8.1801645541717,8.9637800148073,10.0475411360316,10.193521159294699,7.70428008839903,7.3980245502777695,7.99556078534268,7.93818128253091,6.929834131799389,6.52556162103125,7.68681651501022,7.814181173975821,8.61470212605132,9.18188494567217,11.174427829884,14.5305466538726,15.605564409932699,10.5541783757741,8.5896063145077,8.05340821785358,6.50965075783514,5.75312819026341,5.09342764157115,4.69327584645773,2.23019617576097,1.9713979625652098,2.17271288009889,5.6882166518064805,1.94248860332167,1.11109997179258,,,,,,,,,,,,,,,,
NRU,Nauru,,,,,,,,,,,,,,,,,,,,,,,,,,,,,,,,,,,,,,,,,,,,,,,,,,,,,,,,,,,,,
NZL,New Zealand,,,,,,,,,,,,,,,,,,,,,,,,,,,,,,,,,,,,,,,,,,,,,,,,,,,,,,,,,,,,,
OED,OECD members,,,,,,,,,,,,,,,,,,,,,,,,,,,,,,,,,,,,,,,,,,,,,,,,,,,,,,,,,,,,,
OMN,Oman,,,,,,,,,,,,,,,,,,,,,,,,,,,,,,,,,,,,,,,,,,,,,,,,,,,,,,,,,,,,,
OSS,Other small states,,,,,,,,,,,,,,,,,,,,,,,,,,,,,,,,,,,,,,,,,,,,,,,,,,,,,,,,,,,,,
PAK,Pakistan,,31.1315890454724,15.8151491504515,19.940997139682104,13.7474349637441,12.3332401353337,14.4562227278282,20.434865053693,14.0690822726277,7.903826190402429,11.5398127796917,11.963402447207699,8.94451953551759,9.17671845054709,9.0947131963193,10.1629342129231,22.8734924904835,17.1545232684721,19.7005322708774,21.368125707672,21.0734673860603,21.9946722561783,18.8984594869019,32.9211472431058,24.8193630021064,24.3709488033728,32.9059270787145,24.529463903498602,22.7878198042904,20.466909584470603,22.7014140100662,25.3120277008989,29.9319017664214,31.9562023237872,35.2304048067839,36.017888218645396,32.4869807101291,32.5429487234378,23.323745650362703,21.7781894370853,22.8284765944841,25.508807265826697,28.064586748056396,29.869805764416,25.6778691992552,,,,,,,,,,,,,,,,
PAN,Panama,,,,,,,,,,,,,,,,,,,,,,,,,,,,,,,,,,,,,,,,,,,,,,,,,,,,,,,,,,,,,
PER,Peru,,4.08976123822891,3.8817490255330496,8.72400413129559,4.1875776471830495,4.1499067846936395,4.0732534942536605,7.72263205694796,4.39714996664778,3.7115279978486204,11.4084430660518,9.178605556928519,10.524247180837099,22.7753811516576,9.514064234042939,22.4253529786561,16.711633120799803,21.3530604145179,35.421601143038295,21.8929953729453,25.401106936401803,26.988228933246898,21.786325453235197,33.420234542709,31.564241675402197,13.877093682602698,17.0092113559807,59.061483270784905,17.989594117897397,21.9901353986077,7.32981529779838,6.72545225873027,6.22960532977364,10.2285570437424,16.7647636460129,20.769157614123603,21.304340437846,23.982170351379498,38.9807085833731,47.657784373668,35.6607642385613,25.161552849590898,32.3836146056717,31.2583339474789,,,,,,,,,,,,,,,,,
PHL,Philippines,,5.95803357918808,4.56331738058821,5.4125809645052305,7.79764456337282,6.828713525311509,6.12362996713801,7.12827097081222,7.29688339170604,11.943862041821802,15.992891870097498,13.4691282919165,11.7992415995864,9.46969982843844,18.5904378589908,15.850013161073,20.2490985363904,19.305769691130397,19.7273417591433,19.9259716361622,14.628096077864699,16.6724871557296,8.562019723354759,7.3239848548779705,11.043362197527099,14.3358259348183,16.4888850601257,23.2719664041967,23.252010404133703,21.765102606651503,25.643165161191302,20.1684229757395,26.635591336958605,30.2025801155439,26.0190452519402,18.878286307944897,18.3530706760634,17.709877699213,14.985708088455802,11.388960528952598,9.793510427660369,14.5617150871303,15.102167417515302,9.1554491713881,,,,,,,,,,,,,,,,,
PLW,Palau,,,,,,,,,,,,,,,,,,,,,,,,,,,,,,,,,,,,,,,,,,,,,,,,,,,,,,,,,,,,,
PNG,Papua New Guinea,,3.68758596941568,1.7263969437226498,1.3227867425976498,1.2060407009071399,1.01493463401639,1.03222746381293,1.4477542718016498,1.4036853817076298,1.33752599886707,1.3837905931618797,1.8060024957476801,3.12153272571563,4.05114425872108,3.4608344431661298,5.88044677662238,8.3893127402629,7.29530019343644,7.78231339443077,7.08632115445047,8.03667717442951,8.46879502449507,8.34070827669183,10.5664503449135,8.333134685498889,10.066171462233699,12.4572840561607,9.312936880299269,8.69290634132382,12.9148687672278,18.3753751675133,14.8870907957541,18.426418596355802,12.4841262550894,11.205786103647402,12.8757943064624,15.7249574163061,10.6117114975609,10.716649294259199,7.53868370620641,6.303858098724509,5.45169391007868,5.688914692162499,3.84706250545573,5.17107038873905,,,,,,,,,,,,,,,,
POL,Poland,,,,,,,,,,,,,,,,,,,,,,,,,,,,,,,,,,,,,,,,,,,,,,,,,,,,,,,,,,,,,
PRE,Pre-demographic dividend,,,7.83657594469339,7.3959323180117496,8.40022063657081,5.93437261746581,4.46746629530104,3.2026056596489503,2.6120303336358703,2.15541303353098,2.29998198241719,4.14784663932606,2.55149673188801,4.49891776862232,8.882174974826,11.038868019571,7.8596316372883095,9.1789888518132,9.77140206924591,14.3272904727597,11.972647955282,12.6141780298351,18.0766872634128,14.219136915330301,16.2156454707275,15.325931223425501,17.2276881699715,12.6713552220083,15.2770790379725,19.951272454178103,19.767027764645697,19.985681562314202,25.654062341855603,20.4212259263573,27.9739209352185,25.5449583055512,22.253342856447702,18.2215024676463,14.7333995090642,9.40600657078833,5.77875774922571,5.54480741550773,5.748402196308381,3.86438600613584,7.28366646780826,8.31607196534729,10.1906031371424,,,,,,,,,,,,,,
PRI,Puerto Rico,,,,,,,,,,,,,,,,,,,,,,,,,,,,,,,,,,,,,,,,,,,,,,,,,,,,,,,,,,,,,
PRK,"Korea, Dem. People's Rep.",,,,,,,,,,,,,,,,,,,,,,,,,,,,,,,,,,,,,,,,,,,,,,,,,,,,,,,,,,,,,
PRT,Portugal,,,,,,,,,,,,,,,,,,,,,,,,,,,,,,,,,,,,,,,,,,,,,,,,,,,,,,,,,,,,,
PRY,Paraguay,,3.9987777326847596,3.18296017061782,2.9531486048779905,3.22135721872398,2.68598142443811,1.96914771519319,1.9128659770756298,2.43359913431591,2.33164850014809,2.74302645731717,4.30070150216896,3.25211344488128,3.9007138782809103,5.0586859648703,6.12126194304782,7.988462145351889,5.917193537448091,5.8576932516670706,6.46973137806078,5.395567916663901,5.0989078935684695,3.46360224338759,3.7727537794305004,3.66359522557312,4.38391432237886,5.762353289375841,7.91350468834921,24.3932163153507,9.61229182639434,7.6127822100581595,8.87673684178889,24.8639588182413,27.603040253720398,25.3459366943742,23.0607912347117,18.2967818618619,16.6030124107143,13.2362886353599,10.9160918997912,12.747811300824802,10.605024776823301,9.30356957677366,7.907600953288849,9.89509848719938,11.6665077844311,,,,,,,,,,,,,,,
PSE,West Bank and Gaza,,,,,,,,,,,,,,,,,,,,,,,,,,,,,,,,,,,,,,,,,,,,,,,,,,,,,,,,,,,,,
PSS,Pacific island small states,,5.22334539166683,2.72860604940467,2.30431022446678,2.81271970235038,9.54755994186499,2.29821675090536,2.07990406215844,1.8534135071425502,6.1267558584349295,1.94056833652816,2.26757095181537,1.9267351857427901,2.21486964812675,1.4677506220812602,1.49942549552374,1.4024885616441298,1.5730052828937098,1.8030018569459598,1.74195656359352,2.24031950849387,2.64468227329994,2.30658466870298,1.52977736383143,2.2032905774731,3.3105946094197796,5.647994181268981,5.531918615638371,6.258207559346269,8.56451066347833,8.40301052145341,8.02858429138921,8.90232327830209,10.6840643729978,10.0279580173467,9.72714996953423,8.09290081878139,6.54504659626898,5.68124907080113,4.66033104777756,4.92684379880697,3.44823429584095,6.92785909002288,,,,,,,,,,,,,,,,,,
PST,Post-demographic dividend,,,,,,,,,,,,,,,,,,,,,,,,,,,,,,,,,,,,,,,,,,,,,,,,,,,,,,,,,,,,,
PYF,French Polynesia,,,,,,,,,,,,,,,,,,,,,,,,,,,,,,,,,,,,,,,,,,,,,,,,,,,,,,,,,,,,,
QAT,Qatar,,,,,,,,,,,,,,,,,,,,,,,,,,,,,,,,,,,,,,,,,,,,,,,,,,,,,,,,,,,,,
ROU,Romania,,,5.74153213897784,3.8959318922345902,5.14619913176707,10.2961217089477,10.0339196444289,11.3754558651158,8.37444581519891,3.53236417010704,5.52382446481341,4.6913773375009,5.7375017925924805,5.170916657502481,7.17139114153631,9.92765268909647,8.70688887930064,10.4234215457009,11.996244162323197,13.4298315063937,12.6573491504497,21.0023732879358,21.1108835200327,20.5163648403941,24.919352167112603,8.832598815900461,8.01264811243332,4.42412405630865,7.373213728579871,0.9160558495049499,0.0,16.2529920274735,33.270491338703195,21.3962108562155,18.2823180187429,18.233673640811897,15.194939870616802,14.4547555690661,22.099188034071805,13.047423149907901,10.5285929580592,1.3900881488736498,1.30157103825137,1.02569191305522,0.12162000299445999,0.0219290731540175,0.0145420207743154,0.0,0.0,,,,,,,,,,,,
RUS,Russian Federation,,7.173861795468769,11.037921831212001,5.931315532806241,8.14709206633772,10.262947388876698,8.20492136950529,3.5325237328884302,2.5853661863700603,3.88571459885289,6.61367916180243,5.76460892453449,5.64447847138918,3.77015648475571,9.976344042336251,10.9448438264622,5.771266754409,8.05513599637599,7.85792735375363,11.743829305861599,7.47464808622591,11.237875826154099,9.71117991254416,6.73682054051216,6.817391129076809,6.33164963097484,4.375249462626741,,,,,,,,,,,,,,,,,,,,,,,,,,,,,,,,,,
RWA,Rwanda,,3.9192226871724505,3.9541708111275695,3.89370636004098,4.37973886267828,4.0580663625833795,4.143422605501939,2.98919088992321,1.91612707591106,1.9591226001716497,2.0030971043028103,1.88716011559098,1.99418988868058,4.9526206665809,6.661036780716291,10.7716459426038,12.906649464154,15.1796745974201,14.173681877052,11.411492603071801,24.6735166638235,25.687015711567803,15.4052979646012,13.535872747226,19.243739965388396,19.9980858676018,6.50943303133607,14.761250094658502,14.556490157114698,12.5164675532181,10.737201166699,15.4416750593607,11.388049986058302,12.0223445288905,7.6074336201209105,8.933318520104152,5.38592787295251,4.75301784604457,2.94203863430115,2.3537030232282596,2.18991531747926,2.1508801137367,1.31333065756052,0.969327521804499,2.8368368001180295,,,,,,,,,,,,,,,,
SAS,South Asia,,5.02769617345116,5.3289113524097305,4.24535267959687,5.68951257569855,4.119691787736491,4.11310721987178,3.69750313515822,2.95497815747495,2.4875791788858796,2.83315054117068,3.59798024271149,5.1349010352472,4.7121546266283705,3.94689572204759,9.382472224076212,9.302849375543211,18.312315280183302,15.596321425252599,13.1989875378022,15.0938123165455,15.453826153644302,19.479186732259,22.9571236211831,22.6588287420548,26.0691646371279,26.9643702138551,22.870325050666498,23.274713765928198,24.2142334782634,25.574292333584598,25.8439320181522,27.020214683364397,28.579349601667104,29.505723496332003,22.1285748278501,17.9323208798588,17.5434326278288,13.8456847671784,12.715914704460198,12.3476073495498,13.6919778558326,16.4005731468121,17.2877100919223,19.143742976610998,15.1713003168968,,,,,,,,,,,,,,,
SAU,Saudi Arabia,,,,,,,,,,,,,,,,,,,,,,,,,,,,,,,,,,,,,,,,,,,,,,,,,,,,,,,,,,,,,
SDN,Sudan,,3.68203162840192,4.07612203153392,3.96363102300726,6.30710507655385,10.6234963618295,4.2811272868631205,4.85684756835576,7.02836514699424,4.809724874164901,4.16364886245748,5.6963744337078,2.91535871679986,3.8554490841640896,4.8548141113099,7.75748018342716,8.23573749840649,10.5837468033654,6.750150675909389,13.558207630986098,13.178894952955899,6.76966779064487,9.78863558861164,8.95297763772176,7.067088554892809,10.102677273392901,0.536239670932358,5.3844124867162595,7.2069311466522095,5.79746402407117,4.82234489636292,8.57727502528215,13.156091049818098,16.7357007655293,39.61310801713589,15.565920567063598,15.8269297351964,20.6436775515635,21.5866951283729,15.1311237026066,18.81071531266,16.180619607908,17.1777517748916,13.2340316364524,,,,,,,,,,,,,,,,,
SEN,Senegal,,,11.217265764982601,9.60383008326439,6.86981258537598,6.3438140369833205,5.34189254035267,5.738744397982741,5.543646343509541,6.1678622644781305,4.36778357629626,4.21237974360734,3.25880264201935,3.50246804075491,6.184784210631619,6.36258554861703,13.464519345657301,11.5058789481997,12.7147490699756,12.597270463478301,14.7418216119392,14.2486964940291,19.8121203673345,17.4998308652758,19.3946867924845,16.4652265909821,16.3282934780044,8.69490845590072,12.5422782987365,20.052826412874104,18.280946245733,27.6143399982238,30.485698171021298,31.511134919849,25.943366334857398,19.195446435361198,14.7927367069828,9.7599607557837,10.1055292970859,14.0423009084268,27.7323720396133,17.673930518043,16.013705335283,6.59238541493921,6.0847734213530495,5.6783341159496,5.694468202042481,,,,,,,,,,,,,,
SGP,Singapore,,,,,,,,,,,,,,,,,,,,,,,,,,,,,,,,,,,,,,,,,,,,,,,,,,,,,,,,,,,,,
SLB,Solomon Islands,,1.31002004883622,1.30206274878647,1.58736532101121,1.9245745839463202,1.6220296864630401,1.5312186087768103,1.28931594961574,1.23567817184978,1.46273564480739,3.1000945123225896,3.51939974288265,5.39880963213412,4.94247066350467,2.3501678112113398,4.81222153065791,3.79622302186118,5.59623399908271,2.8366482335051,1.78947447361354,2.80119720123937,2.54715575163272,3.25757461993652,0.46154580637934706,2.13709140638045,1.28227468864944,4.1966356748606,5.66171261480536,4.84438203682746,10.2940346661472,11.336390275735303,9.14882358967945,6.55763291651102,9.8151583723477,5.1194078699210195,3.86911106698205,2.02903927131283,0.437050877777093,0.212754847286352,0.127768448389413,0.053301863290650994,1.89603211489707,0.0360309602982955,,,,,,,,,,,,,,,,,,
SLE,Sierra Leone,,,6.80041636874856,6.945932621322959,3.5351530339343102,6.49436500629809,2.3024657124696297,1.36439921502495,1.6509454683957199,3.35217682042452,2.68167498521267,2.04054346072588,1.64918959742208,2.8167580887476498,7.836096232273491,6.7207832699413395,10.0423706681369,10.224704137839,13.0510400601682,112.30264351555901,75.65657258170559,86.3024874534728,43.8975280865164,30.7071207216911,58.40302768166121,63.1870911141935,73.0329939634746,17.480828760408002,16.9754582854437,6.834663456655611,10.1174994352054,4.18852625025273,11.811062093466301,8.97379149620503,39.685734485489704,14.8795326864381,25.4295600304578,23.741162380970398,27.7255773934416,37.302970624667296,27.4692852697021,22.226225946812402,20.3072568822022,10.5132427036984,,,,,,,,,,,,,,,,,
SLV,El Salvador,,22.665772655872303,13.2504333925679,13.291084341859401,13.8464113844754,12.7826676085465,12.9963211571731,12.655286971025,13.942202438884301,16.9328278281363,16.6384485493774,21.7721485714376,14.4368910683504,15.393548328638198,20.519111798295697,15.041293221452301,19.346651202204303,17.463159284035097,14.2173354120018,11.892826379873199,10.0023821522904,10.927478601740301,16.2201281202632,10.6999002562067,16.7246909431834,16.3008902351723,20.1611575201816,21.105450768587698,22.7346108826425,25.6597307176047,19.0906110716137,15.6461639453016,19.0834530234104,26.176820345865,24.6423240912845,25.6279779999159,23.2179032004527,18.2175585922393,8.89381044893068,5.572808173572461,3.72275904183323,2.87182341703057,4.19474938516048,8.52626424005682,5.23924978880441,,,,,,,,,,,,,,,,
SMR,San Marino,,,,,,,,,,,,,,,,,,,,,,,,,,,,,,,,,,,,,,,,,,,,,,,,,,,,,,,,,,,,,
SOM,Somalia,,0.0542342990654206,0.0053572914875322395,0.00327061320754717,0.00494637773722628,,,,,,,,,,,,,,,,,,,,,,,,,,,47.0015071567799,8.349487712816451,39.02719459883139,65.2421630038135,15.253986898161699,19.5766915923243,13.4565854942591,7.76973374881042,18.155016137912,6.219495403191281,2.61962754452011,2.73274663374668,3.73739416597119,,,,,,,,,,,,,,,,,
SRB,Serbia,,12.176587046229802,11.8959444131866,12.3186159548701,8.20215235041679,8.70631238093696,11.5214579304379,13.7079990547781,8.62092070858665,5.111140491289509,5.276765674898231,4.31505694175393,3.58276269535556,5.078131629562559,,,,,,,,,,,,,,,,,,,,,,,,,,,,,,,,,,,,,,,,,,,,,,,
SSA,Sub-Saharan Africa (excluding high income),,7.773544458763241,9.13895142676273,6.3304015257128095,6.988507049110451,8.54102694912601,4.18482845843289,4.37943328641515,3.2454718306148194,2.41936247736979,2.52251449402519,3.93764903668891,3.27950043996732,4.00023267869527,7.25327749824647,8.57336958195013,5.7049401975885905,6.91773255766937,7.516877188107291,10.596161319893,9.310193698863,8.48782025117707,11.938649495794401,9.98253018947259,10.646555014829401,9.34165307591862,10.7203327743982,,,,,,,,,,,,,,,,,,,,,,,,,,,,,,,,,,
SSD,South Sudan,,,,,,,,,,,,,,,,,,,,,,,,,,,,,,,,,,,,,,,,,,,,,,,,,,,,,,,,,,,,,
SSF,Sub-Saharan Africa,,7.77354445876325,9.13895142676273,6.3304015257128095,6.988507049110451,8.54102694912601,4.18482845843289,4.37943328641515,3.2454718306148194,2.4193624773697997,2.52251449402519,3.93764903668891,3.27950043996732,4.00023267869527,7.25327749824647,8.57336958195012,5.7049401975885905,6.91773255766937,7.516877188107291,10.596161319893,9.310193698863,8.48782025117707,11.938649495794401,9.98253018947258,10.646555014829401,9.34165307591862,10.7203327743982,,,,,,,,,,,,,,,,,,,,,,,,,,,,,,,,,,
SST,Small states,,,,,,,,,,,,,,,,,,,,,,,,,,,,,,,,,,,,,,,,,,,,,,,,,,,,,,,,,,,,,
STP,Sao Tome and Principe,,11.453878725645499,4.617523396228231,4.03790414750356,2.50574820395189,2.8299119096408396,13.803240160448198,10.816728301527801,33.100888279166895,4.6580182325369295,5.6862188098488495,9.88397093907941,10.6936071295837,30.5650998328903,31.539128046649104,37.1450158884112,40.07536885276671,26.220487999075104,22.363490264233302,24.040653331865897,20.4652068138781,25.231568651069697,31.044278145877104,27.445991269573103,,,,,,,28.7113636363636,54.3679126599827,18.759786253765,36.823379082234396,9.85094266823874,29.7957136377285,21.0849357809421,23.675383870268398,17.4562978680646,12.1297740780445,4.7490363684389,0.00637100200847353,1.9611158355144298,0.0,,,,,,,,,,,,,,,,,
SUR,Suriname,,,,,,,,,,,,,,,,,,,,,,,,,,,,,,,,,,,,,,,,,,,,,,,,,,,,,,,,,,,,,
SVK,Slovak Republic,,,,,,,,,,,,,,,,,,,,,,,,,,,,,,,,,,,,,,,,,,,,,,,,,,,,,,,,,,,,,
SVN,Slovenia,,,,,,,,,,,,,,,,,,,,,,,,,,,,,,,,,,,,,,,,,,,,,,,,,,,,,,,,,,,,,
SWE,Sweden,,,,,,,,,,,,,,,,,,,,,,,,,,,,,,,,,,,,,,,,,,,,,,,,,,,,,,,,,,,,,
SWZ,Eswatini,,2.69727179095321,2.21556170309588,2.0382954194038,2.18058513671992,1.7114908877486001,1.6644473065986398,1.84556308712958,2.34944814653022,2.72165424866858,2.26312717310805,2.64534656578008,2.8705854403350597,2.1466791318397798,1.94837520374641,1.7126898164056101,2.19062120910097,1.64005411914242,1.62574122867129,1.98066159196518,2.18221164342712,2.89338359764877,2.11270353662413,1.6847771289340703,2.5771788566362996,1.50196466377765,2.19321282349291,2.2351850180582904,2.2848507171723997,2.9802321533657996,5.33949841708569,4.16641614997253,5.64180312630319,8.59691000257954,8.801953894701699,9.35931156520295,5.61743848728732,5.022446168221429,4.99999685119726,3.7551523284918202,3.5553102086914503,2.3978332456521203,1.57356751139862,1.4059265608153502,1.16487752553995,1.76985366814331,2.1669668655356698,,,,,,,,,,,,,,
SXM,Sint Maarten (Dutch part),,,,,,,,,,,,,,,,,,,,,,,,,,,,,,,,,,,,,,,,,,,,,,,,,,,,,,,,,,,,,
SYC,Seychelles,,,,,,,,,,,,,,,,,,,,,,,,,,,,,,,,,,,,,,,,,,,,,,,,,,,,,,,,,,,,,
SYR,Syrian Arab Republic,,,,,,,,,,,3.11939822388479,3.86442475439785,3.3775331165024705,,,,,,,,,,,,,,,,,,,,,,,,,,,,,,,,,,,,,,,,,,,,,,,,
TCA,Turks and Caicos Islands,,,,,,,,,,,,,,,,,,,,,,,,,,,,,,,,,,,,,,,,,,,,,,,,,,,,,,,,,,,,,
TCD,Chad,,,,,,,,,,,,,,,,,,,,,,,,,,,7.831530095113469,6.21032119151562,3.61927685864282,3.64299369649446,3.7095539101584,5.11035927335171,4.24049348575697,4.11949030751314,5.389549891085019,17.5155899774273,5.18863426122199,1.0545030038602201,2.79634387577921,8.706964008757652,8.38990904379149,3.9028097681565295,5.39935606429999,2.6059490320865097,,,,,,,,,,,,,,,,,
TEA,East Asia & Pacific (IDA & IBRD countries),,1.6645158300123701,1.32510522792869,1.33582306157483,1.4642622504293799,1.7962842381389699,1.54386625591136,1.10555198591222,0.9994084643675141,1.25279566047965,1.62286627635226,1.5534148335208002,1.3932072088332799,1.57550295760104,2.7752356286773106,2.5633644161086697,3.6632456640975,5.51965634462242,8.28821704193925,8.57197159784846,8.03991455531758,10.193216916875,8.241102404519829,9.191061801948711,9.22348728431468,9.76323696094051,10.077575690828699,12.2275056023839,12.1659285441496,13.165556852570699,15.5446066339678,15.850535768975899,16.7437265624542,16.6535060626262,17.5868491922823,14.23385086549,11.7833619002035,12.1032672994957,9.89772478322059,8.921731689137118,,,,,,,,,,,,,,,,,,,,,
TEC,Europe & Central Asia (IDA & IBRD countries),,6.92474085797495,8.50624047910538,6.195576573361159,6.7546880044866295,9.14905146523285,6.93053328512156,5.21480442546628,3.9109438010175,3.9932501756689103,5.5801492255540595,5.39382304490298,5.022713094854731,4.936571102887691,9.13223124635275,11.1983765232232,8.54897903460018,10.2077842622225,12.8174225343999,13.7555561243948,11.0781093995393,13.5102251218644,12.827577330168,9.741604817905001,10.207963966346401,10.383497450562801,9.04285255841997,,,,,26.8881391549577,31.9917768627355,25.5688008459158,23.467064195528398,21.0531281714891,15.0351642189993,15.584687755761399,18.4967891735148,12.955512912201199,,,,,,3.4434630337364704,3.2689222543039196,0.0,0.0,,,,,,,,,,,,
TGO,Togo,,,6.02320805554357,5.63266039460387,4.9905809580871106,3.2513889673274203,2.8171296341303,2.23676186321109,1.12598469339171,0.7171288624115459,2.5875824267729,4.18896506896308,15.8231518807728,1.28858293732271,2.7667038539702404,2.34305783676302,2.64696924128311,2.38775016860439,2.3027683147621296,6.484976875354249,5.4516636170662105,7.62146802189591,6.97756305733723,9.82054994083626,9.26610318203339,5.423747163328859,4.714342590829969,6.01372507107777,5.43265783281391,7.51989456229816,11.4780784656253,15.190054204737699,22.3831510924235,15.8173355767454,28.1381374971762,26.877311592204105,21.973340776173895,14.4052783911407,16.080380970802,14.678851377061,6.652685488760611,8.71707224626079,18.7067018213185,24.245186768727898,12.1647724548069,9.45883546298753,3.6231731180009503,,,,,,,,,,,,,,
THA,Thailand,,0.509797241490751,0.47709533979450897,0.251026112422827,0.27948521671000204,0.502889036766223,0.243457588556692,0.5081794317424521,0.369800169491103,0.529266090849719,0.432337224212024,0.555350169821129,1.13019106006892,1.09639019717685,2.03018400355028,2.36736107272531,4.18549215945366,7.9642236919515,10.624390767621401,8.19395003873669,5.78491796025034,5.67804053650553,3.4779111181526603,2.66092858113325,2.91699159795703,3.7420997465889703,4.53379240797889,4.35740798118562,4.8844054829042305,4.840109556972441,11.420792050985902,10.3871185248619,13.686134542455198,14.2226999097256,18.938758328610398,17.5218666206031,13.350931095996001,11.3072063757386,9.494524027540859,7.881913416685769,5.547182609281809,4.86617668929617,3.74673551730133,2.9675630216960096,2.4092897441851098,2.41900667907438,,,,,,,,,,,,,,,
TJK,Tajikistan,,7.98229261858975,8.63020322922043,6.4923682046916,7.44138281843035,5.34754268424057,4.27609642252373,3.45860696327497,2.9557652791351496,2.14718918328945,2.6848848410251303,4.47433649644928,5.17453255916964,3.28461697151427,5.15328526785451,7.25105082600181,5.82502943623963,5.618479745687551,9.14846925558982,,,,,,,,,,,,,,,,,,,,,,,,,,,,,,,,,,,,,,,,,,
TKM,Turkmenistan,,,,,,,,,,,,,,,,,,,,,,,,20.300322509041,9.551830931922641,,,,,,,,,,,,,,,,,,,,,,,,,,,,,,,,,,,,
TLA,Latin America & the Caribbean (IDA & IBRD countries),,12.7903670514201,10.529353480071599,11.8587851465216,10.7128370139291,9.90920071303699,6.241224902180541,6.6531904244258095,6.73121582433524,6.231354481471961,6.9294520629630805,8.68196755623028,7.78754384863591,9.42892737690727,14.9306492509569,16.1662821762434,16.4141440865269,22.4595844350339,19.262613554631898,18.5810523674689,22.1731708286301,23.0532703554256,19.8493153456552,25.6559419523012,25.6596531028732,22.182654574277898,17.471862120708803,19.003757372086802,22.1255407568008,20.8210218868647,21.361438307358803,24.4276593486928,31.612674828825497,30.626412939629397,34.082896293074604,27.662484233372002,26.314628236149897,27.8595346092932,29.4829353401762,24.073231243474897,24.156743014566196,28.3328471353192,21.604101017983197,15.0669499567139,12.456393324086198,11.570272042267302,5.869945417749361,8.60552637650955,9.38201484880305,7.4128221435101,7.879243495935429,,,,,,,,,,
TLS,Timor-Leste,,0.545983923250178,0.31464587033047,0.19778076288808602,0.124179938344076,0.0219925896256461,0.00811650970415891,0.0018154807983705198,7.66676639063935e-05,0.0,0.0,0.0,0.0,0.0,0.0,,,,,,,,,,,,,,,,,,,,,,,,,,,,,,,,,,,,,,,,,,,,,,
TMN,Middle East & North Africa (IDA & IBRD countries),,10.762335404159698,,10.176365705563,11.020074087349801,8.20732352161339,7.2091918795937895,,,6.354109550983731,5.560747892743451,6.38938420522221,,,,11.0524954207421,14.884275674330402,18.622408862560302,17.590700574359502,14.509382707318899,12.9967941583158,16.7714809028102,17.765469743530396,22.528612213952197,22.9661676513744,24.2648059544325,18.8936691724562,15.106294957678001,16.213886263576,26.5627059598686,25.765553442917,29.535292570096196,31.030223707808105,25.861992575413105,34.100794457016605,22.451350004148196,19.099699523618398,17.239331741652,16.4384860907193,18.0304490234941,,9.74484013983104,8.12792701722014,4.91451615139309,1.08857854155388,7.37410260696247,5.94425381081603,9.781649077398269,7.92429085614035,,,,,,,,,,,,
TON,Tonga,,3.30986563391315,6.57792794922837,3.99747791990995,5.06743454512647,7.27734557591789,6.729059380398691,5.682094921169409,6.14716763336035,6.5467279151424504,9.31865502614687,7.16532314498449,8.74869673351477,10.6316183584491,8.57950659181652,9.76109877204958,8.63191861862221,8.2303447362457,8.88656486575984,9.7863351796489,,,,,,,,4.4561446802125095,4.69420911219932,4.34706176631093,3.48060407803101,3.0558735386032496,4.00056416315654,3.4960876603605597,3.54857004051678,3.20790353802662,,,,,,,,,,,,,,,,,,,,,,,,,
TSA,South Asia (IDA & IBRD),,5.02769617345116,5.3289113524097305,4.24535267959687,5.68951257569855,4.119691787736491,4.11310721987178,3.69750313515822,2.95497815747495,2.4875791788858796,2.83315054117068,3.59798024271149,5.1349010352472,4.7121546266283705,3.94689572204759,9.382472224076212,9.302849375543211,18.312315280183302,15.596321425252599,13.1989875378022,15.0938123165455,15.453826153644302,19.479186732259,22.9571236211831,22.6588287420548,26.0691646371279,26.9643702138551,22.870325050666498,23.274713765928198,24.2142334782634,25.574292333584598,25.8439320181522,27.020214683364397,28.579349601667104,29.505723496332003,22.1285748278501,17.9323208798588,17.5434326278288,13.8456847671784,12.715914704460198,12.3476073495498,13.6919778558326,16.4005731468121,17.2877100919223,19.143742976610998,15.1713003168968,,,,,,,,,,,,,,,
TSS,Sub-Saharan Africa (IDA & IBRD countries),,7.773544458763241,9.138951426762741,6.3304015257128095,6.988507049110451,8.54102694912601,4.18482845843289,4.37943328641515,3.2454718306148194,2.4193624773697997,2.52251449402519,3.93764903668891,3.27950043996732,4.00023267869527,7.25327749824647,8.57336958195012,5.7049401975885905,6.91773255766937,7.516877188107291,10.596161319893,9.310193698863,8.48782025117707,11.938649495794401,9.98253018947259,10.646555014829401,9.34165307591862,10.7203327743982,,,,,,,,,,,,,,,,,,,,,,,,,,,,,,,,,,
TTO,Trinidad and Tobago,,,,,,,,,,,,,,,,,,,,,,,,,,,,,,,,,,,,,,,,,,,,,,,,,,,,,,,,,,,,,
TUN,Tunisia,,14.331651391138301,11.9025883121416,14.3176370037518,9.83384922637739,8.894683676579831,8.04207268039894,8.37588292814641,9.411555655162491,10.174373146225099,8.69004075013455,9.178790775471631,6.658213376666599,10.3742135766267,13.4041412414924,11.5160382069717,13.8494026247295,13.564533981649499,14.2306846084905,13.212434503551302,20.668627249897398,16.1596298683783,15.629077180912098,15.994381268699698,16.8397143629234,17.2747464990237,19.5195700610652,21.2185116555522,20.640035992338102,24.859034841083602,25.5590700581919,23.0102879470255,22.8845044809991,29.7947533705607,28.919982552557002,24.829315073358103,23.280080100514397,19.4934078593202,15.9929571258434,14.6714685231318,13.7861815780999,12.229045748237699,13.098216688489401,11.1127278587555,7.62157464672738,,,,,,,,,,,,,,,,
TUR,Turkey,,7.29880046072642,6.443299231618429,7.12243889639541,6.331506635818631,5.0864471577903805,4.88501588012957,4.53130105840488,5.90761927891214,7.526283239621401,8.00886700906307,8.144840138392532,8.319485295764942,11.5289044868855,15.231368692629001,19.3117911161005,18.8141948625871,20.300676491999802,30.1417344054441,24.7588346968662,18.5770131446352,18.436093022244503,19.0697175553906,16.394382902223597,17.987662113981198,24.001458997898602,25.4578551148566,25.225631498649502,29.493263737258,30.5183540611126,29.8758242652216,33.6738661669668,37.034269974937295,35.603776705931004,35.683069174984006,34.7278890461592,27.2527880594567,33.267924704253694,32.4220308564581,32.1041820252534,34.2933821323529,28.371855867295398,20.5370222509748,17.0631562887048,13.091687304210902,13.340139806739302,11.5455520989433,,,,,,,,,,,,,,
TUV,Tuvalu,,,,,,,,,,,,,,,,,,,,,,,,,,,,,,,,,,,,,,,,,,,,,,,,,,,,,,,,,,,,,
TZA,Tanzania,,9.784954630906821,11.1747432732806,6.7802022111596205,5.99032681311123,2.88726391363037,2.104038153615,2.39011144262071,0.9380580429050949,0.9896054422012879,1.3266364555115,1.0432744712964201,0.618597147087354,1.07009968822293,2.13227276867243,3.9948877545712,4.14151012217142,3.69016185294011,5.037410991192679,7.47088776493929,11.2312048456707,17.2666465625665,18.3929354926969,12.1760365091171,18.4457688433852,17.1614394247189,18.4356453317086,26.3432203895257,39.2695945538079,39.43100429423421,31.2953544571693,31.645639315334602,27.5848473912029,34.1757215345187,29.9532773618751,33.2669939233971,20.442826298178,25.6271191247086,20.4161965335133,14.8957021678188,14.810160933343502,11.5319965418713,13.800452028000601,5.393862314007009,3.75991501627586,,,,,,,,,,,,,,,,
UGA,Uganda,,4.58603163797529,5.6713193976158705,3.4559144778850697,2.09903806198093,1.84504520186118,1.9768873886302099,1.6668818114439399,1.3579134674391398,1.47435270011901,1.7611915508063,1.99588596036596,2.13634238619812,2.50764114757869,5.28811111299795,10.617352420456001,8.68129095231909,10.4343631394698,9.60768024331564,6.5549900045232405,10.0030381038816,17.9005350265883,20.2480259088443,19.7010680664369,17.8758051196343,19.5381733431085,27.0071801811795,45.0055753908724,56.935606691253994,72.2615152669817,78.6351670416198,66.11815884047529,74.59488306421329,47.2110178657074,40.240634638196894,41.139675322234204,29.7947473709031,22.7222593146587,17.082709248055302,22.822970828769602,15.7501801935289,,,,,,,,,,,,,,,,,,,,
UKR,Ukraine,,8.61604651676621,10.557804591003801,9.696347379074949,6.71185655575931,30.521048175141697,10.5975307107515,15.013916961088901,7.63203462381675,3.17394300357876,3.25055271776062,5.455035012697519,2.66188154825425,3.72784117553944,4.90607981403586,5.07684096694634,4.85968423161857,5.904649547531,6.37220030914826,7.23747771260705,15.1615953548457,12.464090099591699,9.0827186734877,5.852324758933361,6.101573050451409,6.5959526134068,1.52995790800743,,,,,,,,,,,,,,,,,,,,,,,,,,,,,,,,,,
UMC,Upper middle income,,4.65332930294867,4.55166104711686,4.07327217437635,4.084775991249,4.4589319264424505,3.09052876842058,2.8317668613700495,2.68303992571546,2.8143034436639796,3.37703370377006,3.75623324555633,3.75581340633612,3.94964052739769,6.99634515180768,8.07154792988897,7.60270504389856,10.8934706439077,12.6175345387039,12.9541538213845,14.0657044700863,15.170241049695498,13.484254358638301,15.22504727914,14.047797811962301,12.794501107790401,11.120095032806699,14.1728663707339,16.452530665753,16.1861691489412,17.409064180561398,20.335979130583603,24.8074820792471,23.4308388255829,25.8433570667934,22.9340656879219,20.820831527639,22.2659284892505,23.5524655407371,22.4734888765236,,,,,11.4124084813737,,,,,,,,,,,,,,,,
URY,Uruguay,,,,,,,,,,,,,,,,,,,,,,,,,,,,,,,,,,,,,,,,,,,,,,,,,,,,,,,,,,,,,
USA,United States,,,,,,,,,,,,,,,,,,,,,,,,,,,,,,,,,,,,,,,,,,,,,,,,,,,,,,,,,,,,,
UZB,Uzbekistan,,3.32675934350595,3.03949492643412,3.0611470515009302,3.3903761875428504,2.5853080006052402,2.57962244847239,,,,,,,,,,,,,,,,,,,,,,,,,,,,,,,,,,,,,,,,,,,,,,,,,,,,,,
VCT,St. Vincent and the Grenadines,,,12.2628048243462,11.0567164002285,10.5024813458736,11.575132475035,11.5957006734626,15.6587216263432,18.069964058705,18.246015882241302,18.5200856939351,17.5509865551345,13.941967618998802,12.319531765287199,14.7795742218091,11.3201370408429,10.1994978477984,7.800598771148139,6.508762038582269,6.72394921809281,6.15481370026983,6.980982940053001,6.240391764380031,6.550375974694691,5.48261393185115,5.0959067277238095,6.23192294353045,6.30611006325475,4.13513774964983,4.05420172789539,3.13752812628802,2.9391053178371,2.68723178946764,3.05904161536664,3.25495909303231,3.8666897094431003,3.46352998624484,2.52844247038917,3.1431086688641696,1.3793487025948101,1.06579747474747,0.677410778443114,0.45661598639455797,,,,,,,,,,,,,,,,,,
VEN,"Venezuela, RB",,,,,1.0727637697586299,24.2345935621129,10.7471810427372,8.52427701077392,6.06080834024163,7.05598768105408,6.37607948652828,6.52634595425304,5.78272137125516,9.17008394710591,6.75066005547593,10.0447719959809,18.1809286260273,27.5752850916647,23.9055505541889,22.361938875872898,14.6128713087924,23.2539068231179,27.9309859799158,15.1909022107513,15.356417004728401,19.2963654062776,12.772717520070401,15.479615790721299,13.079131970095197,13.6722600749084,19.595303772363,16.7545769563263,25.766176909090902,21.540470939998396,27.507325495423398,13.9006476205713,14.7769962417815,15.7320562574246,16.2569163472816,10.6013384452873,13.3346613237675,9.47641501625268,7.00397699401198,7.64395082762401,3.99576722532768,5.41755911117717,4.27012494611979,5.98485759992423,6.46436282621416,4.01985098532495,3.14451887045535,,,,,,,,,,
VGB,British Virgin Islands,,,,,,,,,,,,,,,,,,,,,,,,,,,,,,,,,,,,,,,,,,,,,,,,,,,,,,,,,,,,,
VIR,Virgin Islands (U.S.),,,,,,,,,,,,,,,,,,,,,,,,,,,,,,,,,,,,,,,,,,,,,,,,,,,,,,,,,,,,,
VNM,Vietnam,,1.35626565096816,1.38362533697292,1.42811662186482,1.7940838734840399,1.55768522238089,2.17368767017522,1.8640117383096497,1.79130300018458,1.81023910717649,2.0682880673212503,2.25426181199403,1.79937278178133,1.9145309580859802,1.85006547001798,2.3184925143969504,2.54716209201048,3.48121944151873,6.00950252106352,6.5683529820986,7.21295552142326,9.74608371216931,8.754386488764041,7.0613669698759605,3.2296583616933,,,,,,,,,,,,,,,,,,,,,,,,,,,,,,,,,,,,
VUT,Vanuatu,,4.67737335778166,3.45610776137099,1.9534900293328898,1.97716813284796,1.78584676237764,1.61314629854108,1.50264811795156,1.2273895727298,1.25213272173843,1.4447163967901298,1.5010273002617698,1.23686044351104,1.5159471333935,1.9035555317134898,1.24062083900077,1.57430246500162,1.32832507190499,1.45123741788955,1.23195582737754,1.4014701901161901,1.3617708874179,0.5319545375605911,0.8282206717312479,0.964976893323612,1.0652139874673399,1.19473952318074,1.3792226659538898,1.36001848330111,1.1232004316104298,1.60117166469126,1.62598706152276,1.6347363000277,3.23225443522044,1.1953407534906202,0.665095778524246,0.681082974749586,0.894009927485864,0.896582927248662,,,,,,,,,,,,,,,,,,,,,,
WLD,World,,,,,,,,,,,,,,,,,,,,,,,,,,,,,,,,,,,,,,,,,,,,,,,,,,,,,,,,,,,,,
WSM,Samoa,,9.05976968610415,9.77927434588451,9.011211903557099,8.952652775673052,8.76453644366657,7.8089588968136905,5.9826867373745705,5.820861373413281,5.6172900615087,5.26371468451371,4.695398960619,4.166898537546509,3.70067593748432,4.55877785835219,3.9497808559829997,5.50090865871196,,,,,5.743868219223571,4.64077069951633,5.4357406486447,5.76400592278988,6.57196551449048,10.0736503329736,8.720745782473308,9.86317687678924,10.749514709726,10.621640835610599,13.9000833980725,18.9352448663874,25.181227143002896,32.308649047463,27.9193456035985,21.034022683222698,19.370480656400897,18.3432514700615,25.610854615043102,20.678641066591002,18.5214083950359,27.272197998920397,17.5249470520085,,,,,,,,,,,,,,,,,
XKX,Kosovo,,2.75981436122952,1.56958416873669,3.51513699509758,4.656253803811531,2.61124270473845,2.19918016442589,1.7575814860390202,1.47259675321269,1.4941379322664199,1.8580159061383,18.7783005902547,0.0628277723925868,0.29225547890838,0.44144840062405794,0.396517925758443,0.31247882805205396,,,,,,,,,,,,,,,,,,,,,,,,,,,,,,,,,,,,,,,,,,,,
YEM,"Yemen, Rep.",,,,,14.5053687292694,18.8468627874417,3.81983806801194,2.81263524678909,2.70163553744928,2.63495345635786,2.7555707167060097,3.55445155028791,2.6373257857336,3.2896884645886897,2.84031565547301,3.00159629561989,4.29776820171761,3.9915904780748304,4.129399058663259,6.47302965070425,5.03818359218604,6.1337570165605495,10.834591607521801,3.6420264189401097,3.2670627043924303,4.12790948154217,4.11414841318279,7.22211402635432,8.088333351656981,11.165803610988,7.14022127520293,,,,,,,,,,,,,,,,,,,,,,,,,,,,,,
ZAF,South Africa,,4.48151781198888,12.102101484414199,4.1230973294835005,4.836595775120441,14.9928031047449,3.5428685930528903,6.93986169921712,4.79066138259931,2.83961086365933,2.88939839027686,3.6352913957507598,2.90342085846159,2.72566809391478,5.1057680500841,5.625956905890981,3.25379698879923,4.65571070457247,4.90680103483733,6.9579667542987504,5.91054673142331,3.36863230484873,8.56312986432096,6.86511839032442,6.219343944057549,5.10877883602173,4.91402785788154,,,,,,,,,,,,,,,,,,,,,,,,,,,,,,,,,,
ZMB,Zambia,,11.540520008176301,7.87255083820722,6.097194797487731,7.22907589931959,4.21316422176265,1.87398316501176,2.11796030225867,1.43972779808716,0.7869793159915741,0.757974132992051,1.50718342563215,1.35310302685022,0.8628081269560021,1.6647350987586498,6.53006708408875,17.8868765207707,40.2045674190525,18.5983506577702,16.2574074473275,18.5072680256235,14.6164684552846,19.6310413760799,18.3009978171789,,,,,,46.65353363097589,14.512402290917098,13.3158513985279,15.1045344419571,18.9909765123765,52.0764652942765,15.724139857077,24.9819577919408,28.744659271911,29.896260020393,32.459287506413496,22.8430845467413,18.9274704379562,25.2872541080059,,,,,,,,,,,,,,,,,,
ZWE,Zimbabwe,,,1.8674544296369902,2.8071441503406103,5.58727034344739,3.73717548003852,3.22964288578582,2.8096292503244,0.6102111333686129,0.44370702675906504,0.571090875810136,0.7629953059409821,,,,,,,,,,,,,,,18.7404217093514,24.4693678057418,25.853726019713896,18.480157264191,19.539947884211,19.8636163210004,26.515057058618,30.0938410492765,29.7909431894038,27.159727708529996,23.0235394657101,33.136820841105,9.07471274587372,3.97426816142259,2.9098280814077206,1.18295278838128,0.809474832918178,0.589837099220435,,,,,,,,,,,,,,,,,
