economy,Country Name,YR2020,YR2019,YR2018,YR2017,YR2016,YR2015,YR2014,YR2013,YR2012,YR2011,YR2010,YR2009,YR2008,YR2007,YR2006,YR2005,YR2004,YR2003,YR2002,YR2001,YR2000,YR1999,YR1998,YR1997,YR1996,YR1995,YR1994,YR1993,YR1992,YR1991,YR1990,YR1989,YR1988,YR1987,YR1986,YR1985,YR1984,YR1983,YR1982,YR1981,YR1980,YR1979,YR1978,YR1977,YR1976,YR1975,YR1974,YR1973,YR1972,YR1971,YR1970,YR1969,YR1968,YR1967,YR1966,YR1965,YR1964,YR1963,YR1962,YR1961,YR1960
ABW,Aruba,,,,,,,,,,,,,,,,,,,,,,,,,,,,,,,,,,,,,,,,,,,,,,,,,,,,,,,,,,,,,
AFE,Africa Eastern and Southern,,,,,,,,,,,,,,,,,,,,,,,,,,,,,,,,,,,,,,,,,,,,,,,,,,,,,,,,,,,,,
AFG,Afghanistan,,1943607688.1,1948884923.6,1981566648.7,1949505964.6,1989954793.3,2020951888.7,2106231511.1,2079790573.1,2032464249.9,1975547213.6,2106108788.4,1994506003.0,1902610499.2,920022562.7,,,,,,,,,,,,,,,,,,,,,,,,,,,,,,,,,,,,,,,,,,,,,,
AFW,Africa Western and Central,,,,,,,,,,,,,,,,,,,,,,,,,,,,,,,,,,,,,,,,,,,,,,,,,,,,,,,,,,,,,
AGO,Angola,,34568384665.2,35329662591.0,33899903546.9,34463208591.8,27301168413.3,27823589358.5,23346327251.8,19199417429.4,17520904158.4,15462121908.6,13630391668.4,12685850634.0,9225772074.7,7347617847.7,9518007576.1,8166055391.1,7620032986.7,7530850651.9,6982714292.1,8084844148.0,8713044776.2,9099557192.7,8681585483.1,9377299505.7,9544234897.9,9122081832.6,8691068178.9,8130429817.5,7702671839.4,7603459882.7,6676170079.9,,,,,,,,,,,,,,,,,,,,,,,,,,,,,
ALB,Albania,,4442311889.3,4559125663.3,4335440726.0,3760814080.3,3844231517.5,3665059088.1,3755988133.4,3547888507.5,3365051003.3,3210131111.3,2874058234.3,2293726087.3,1784599695.4,1574574789.9,1372154320.1,1399398801.2,1231771684.1,994817253.8,970052069.1,920960202.7,583745362.1,506241511.2,413719706.2,406192837.9,332006725.9,247576173.3,178987293.2,126853823.7,86200133.1,,,,,,,,,,,,,,,,,,,,,,,,,,,,,,,
AND,Andorra,,,,,,,,,,,,,,,,,,,,,,,,,,,,,,,,,,,,,,,,,,,,,,,,,,,,,,,,,,,,,
ARB,Arab World,,,,,,,,,,,,,,,,,,,,,,,,,,,,,,,,,,,,,,,,,,,,,,,,,,,,,,,,,,,,,
ARE,United Arab Emirates,,,,,,,,,,,,,,,,,,,,,,,,,,,,,,,,,,,,,,,,,,,,,,,,,,,,,,,,,,,,,
ARG,Argentina,,116661722526.2,134908774649.2,127551920700.9,105908181146.7,72820719758.1,76272835930.0,69886341061.6,70577682949.9,71538394036.7,69184226965.5,75796982671.2,70923520108.4,71086100933.0,63381279800.3,59419258383.0,103055442075.4,96673899035.5,90234099462.9,86641606230.8,90357824540.8,90264207975.5,77240805072.9,66984541332.5,62287157338.5,55221009682.0,50588760023.7,46139573174.2,47871495736.2,47843448833.1,47154009319.6,52113884850.7,47819537776.8,49483262859.3,41196296224.1,37538037698.1,26904139600.9,25628655633.2,16039004262.2,10722128187.8,10346063712.9,8827035027.4,6977657037.8,5266271831.3,4654292884.8,3302795689.9,3421164058.1,2938707750.5,2498891468.3,2256903964.5,1963191433.6,,,,,,,,,,
ARM,Armenia,,5655333544.1,5371183271.6,5227511965.1,4471742570.3,3997978273.1,3380303018.5,3315622558.2,2959497864.2,2739931450.7,2559562283.8,2378651326.3,1448904337.2,1285698946.0,1039840661.7,924306167.7,962207800.5,879093011.9,826354046.8,724381421.5,683904100.9,651398849.6,568631826.8,484427779.7,402669288.0,298280275.0,188626997.0,133902025.2,,,,,,,,,,,,,,,,,,,,,,,,,,,,,,,,,
ASM,American Samoa,,,,,,,,,,,,,,,,,,,,,,,,,,,,,,,,,,,,,,,,,,,,,,,,,,,,,,,,,,,,,
ATG,Antigua and Barbuda,,,,,,,,,,,,,,,,,,,,,,,,,,,,,,,,,,,,,,,,,,,,,,,,,,,,,,,,,,,,,
AUS,Australia,,,,,,,,,,,,,,,,,,,,,,,,,,,,,,,,,,,,,,,,,,,,,,,,,,,,,,,,,,,,,
AUT,Austria,,,,,,,,,,,,,,,,,,,,,,,,,,,,,,,,,,,,,,,,,,,,,,,,,,,,,,,,,,,,,
AZE,Azerbaijan,,13976279251.0,13956341698.5,12470060085.4,10624469897.6,8711627149.8,8403975646.2,6583445356.5,6191506345.9,4715542056.1,3812059993.3,3337166120.2,2711815551.9,2278380628.5,1807462903.8,1490648700.4,1354122064.1,1274247695.7,1049156880.0,829122891.1,794476706.4,533515661.0,311556680.6,237273458.7,247857892.0,206082378.9,103199844.4,35500000.0,,,,,,,,,,,,,,,,,,,,,,,,,,,,,,,,,
BDI,Burundi,,428948263.0,422726733.7,425630372.0,408860131.1,408115720.8,403553416.5,398129656.6,411368009.9,363240037.6,381817130.4,393545090.3,1234296833.5,1276072170.3,1230938177.1,1176083859.0,1273100721.0,1251824049.8,1104166706.5,985499684.2,1036016292.8,1053137542.5,1082065038.7,1025626040.4,1084891764.8,1099254965.8,1066115552.8,1002213475.5,951209642.6,901246702.3,850948296.7,832270827.5,755551588.1,711720213.0,524246436.7,408967407.7,319942819.9,273948583.4,180560678.0,135901245.5,118029697.9,92716899.4,59420485.3,38270396.8,20959869.9,17973869.7,9437482.0,7780758.4,6895385.6,7830861.0,7300400.9,,,,,,,,,,
BEL,Belgium,,,,,,,,,,,,,,,,,,,,,,,,,,,,,,,,,,,,,,,,,,,,,,,,,,,,,,,,,,,,,
BEN,Benin,,3611138672.2,3307532218.5,2519213254.8,2028979266.0,1913945055.3,1774955189.3,1610667181.4,1314217477.6,1193319425.6,1113454672.0,983942841.5,873154614.4,769006144.5,604521701.9,1452500027.0,1515001627.6,1363827571.8,1447460011.3,1301575562.9,1237219973.2,1261371666.1,1254452408.9,1180301265.8,1231625181.7,1265369792.0,1279929923.2,1194513979.3,1149947239.2,1065457535.2,1046319864.5,989161417.4,1014797515.6,1027018310.7,857769295.1,745711629.3,662871778.7,702075345.3,665975642.2,443969123.5,385320506.0,348913568.0,214723252.1,179936571.8,136239652.7,113928315.7,104736798.1,87567697.1,45300101.9,49825705.9,42326414.5,,,,,,,,,,
BFA,Burkina Faso,,3342443782.8,3005778479.2,2835203265.6,2532015101.6,2339047176.8,2259937410.6,2260682291.1,2217977333.2,2057463854.9,1931012077.0,1716058254.2,1505876831.6,1257816631.4,993556997.3,1861389621.1,1778309362.2,1593200332.0,1404146127.7,1316005796.4,1229222870.1,1362932334.4,1291375728.2,1146188612.8,1166830714.3,1143325281.2,1046309728.0,1068209465.3,978860621.5,882637541.1,749566804.9,648150964.3,767369530.6,744114403.2,576716543.0,456166856.7,369256869.1,358082422.9,307029883.7,279681119.5,280711178.4,246230060.8,179146283.6,134283149.6,85306252.0,62537911.1,47354443.4,31067227.5,20015915.3,23598002.3,20789505.9,,,,,,,,,,
BGD,Bangladesh,,41036584612.2,36328022906.4,31026786677.2,26000311066.0,24370016665.7,23932177932.6,24082693116.0,23313946385.8,22213128670.2,21140480983.2,21179246045.4,20268338833.2,19432517306.8,18434650533.4,17438901450.1,18698272322.6,17679803154.0,15980821849.9,14410233960.6,14989457889.5,15812878155.3,14936065155.5,13710476215.1,14489520831.9,14914016246.4,14626859288.4,13290060170.6,12462815387.6,12052093948.3,11510306592.7,9914962123.9,9386544711.8,8823135432.2,7249992405.0,5875143938.6,4946492994.7,4610914302.9,4183903175.6,3516928364.0,3166017459.9,2511352006.3,2448475243.5,2050904857.0,1715457427.3,1476222179.8,1092747747.5,421896516.2,78648255.0,,,,,,,,,,,,
BGR,Bulgaria,,11186154454.1,11505916147.9,11630200353.3,11050212745.1,8781256072.0,5901794588.3,4726119969.0,5857396114.7,4676836687.8,4844956908.8,5080267823.3,4832292826.1,5267870451.1,5146625119.5,5075162319.4,7413676777.5,7676174559.2,7479869165.5,7386636773.9,7671348637.3,7727396757.0,7972776454.2,7736814535.3,8223003009.2,8807881748.1,8451877481.9,9693333621.8,9654698560.3,9761095171.3,9834102849.1,9283085437.7,8314895641.4,7914581747.0,5806004143.2,3801537192.7,2583927136.9,1738593873.0,1313089665.2,772737948.0,,,,,,,,,,,,,,,,,,,,,
BHR,Bahrain,,,,,,,,,,,,,,,,,,,,,,,,,,,,,,,,,,,,,,,,,,,,,,,,,,,,,,,,,,,,,
BHS,Bahamas,,,,,,,,,,,,,,,,,,,,,,,,,,,,,,,,,,,,,,,,,,,,,,,,,,,,,,,,,,,,,
BIH,Bosnia and Herzegovina,,4875275686.3,4918705474.6,4841402023.6,4401456780.7,4389813862.0,4733962181.0,4791073165.0,4201134896.0,3874321851.3,3733349191.8,3569910385.6,3008225226.4,2966842787.1,2722495334.7,2562973489.4,2689895300.4,2319678029.5,2035276908.2,1781924562.4,1959013988.0,2244166639.4,,,,,,,,,,,,,,,,,,,,,,,,,,,,,,,,,,,,,,,
BLR,Belarus,,19511439288.2,19987666289.8,20988207617.8,18141781860.3,15837014947.9,15635829771.9,14622199935.8,12559068224.6,10615610548.4,8014341212.3,6241990365.6,5438555605.3,3457260367.9,841892794.9,785547738.5,744358801.3,709994979.8,748625955.7,664306430.1,688889604.7,709096042.3,796385081.9,681412112.8,728852360.4,1301087086.2,1123830183.9,865064133.6,,,,,,,,,,,,,,,,,,,,,,,,,,,,,,,,,
BLZ,Belize,,1285549805.7,1259676958.3,1230933304.1,1176748499.2,1153490893.8,1101355305.1,1052738471.6,984738364.5,1014198645.3,1018915831.7,1036856715.9,1021346555.1,1039945812.0,1019586984.0,990731204.9,936756577.4,954156887.2,779301528.2,648647744.6,556589197.0,341019291.4,282940184.2,268076458.6,250451682.2,219438788.4,182448049.2,175618100.5,169966603.7,151020042.6,136234642.3,128817922.6,119008558.3,111046109.7,98298573.4,94382711.0,76097120.0,75076085.2,62401515.9,56060896.7,47043521.2,33830514.1,22312767.1,13669097.4,9165985.1,4827053.0,5274044.5,4825894.4,5068965.7,4338910.0,4084800.0,,,,,,,,,,
BMU,Bermuda,,,,,,,,,,,,,,,,,,,,,,,,,,,,,,,,,,,,,,,,,,,,,,,,,,,,,,,,,,,,,
BOL,Bolivia,,10950651191.8,9905105772.1,9150676176.4,7010094456.4,6335483734.8,5744904672.7,5281733966.6,4189264515.3,3433273512.9,2829604751.5,2572014064.4,2421319357.7,2178149345.9,3198539466.3,4589843582.9,4578512066.8,4182918936.6,3582211732.6,3194375307.7,4209341524.7,4315702864.8,4368377526.1,4209465571.8,4340220518.2,4545748451.6,4211031072.5,3788247141.9,3767038817.3,3627113833.9,3782128620.3,3523143762.5,4235875571.1,4719575810.8,4165389848.6,3604912459.7,3467123725.6,3350460998.6,2930924593.2,2814205136.1,2263829582.5,1964847026.9,1774509916.2,1498162861.4,1136414695.7,891599347.2,776623504.0,693142204.6,668578038.4,574399834.3,608141874.1,,,,,,,,,,
BRA,Brazil,,193733623756.4,190192024469.7,181160603497.2,174682574897.5,172887433044.3,174931295064.9,136557492665.0,116665074441.1,94712068704.8,97485566992.5,87513195186.8,79918497337.9,79869902875.0,84551656462.0,94354180319.0,97455861807.8,100064364208.9,99686853023.3,96618417433.9,96621779221.7,93029551709.0,99176483490.9,88266784835.1,96829028507.9,98763857925.5,95840926759.6,92057533816.6,91467585844.6,85950307951.4,88105161011.2,88486466771.6,92700054835.0,88692776420.9,81073390256.7,72998962764.9,69857773423.2,60603760812.4,53271501811.2,46770175735.5,41839110578.5,37288368959.0,31802650621.5,23493399632.3,18623475423.8,14882558034.8,11580997097.7,8114945243.1,6209808907.8,4376151343.7,3563841591.8,,,,,,,,,,
BRB,Barbados,,,,,,,,,,,,,,,,,,,,,,,,,,,,,,,,,,,,,,,,,,,,,,,,,,,,,,,,,,,,,
BRN,Brunei Darussalam,,,,,,,,,,,,,,,,,,,,,,,,,,,,,,,,,,,,,,,,,,,,,,,,,,,,,,,,,,,,,
BTN,Bhutan,,2616292989.2,2484230634.3,2540779737.0,2221213149.5,1945060882.4,1827205748.0,1513834830.8,1357737726.0,1043414808.3,919405320.9,772159260.6,675850415.6,773773425.9,696102067.0,635565991.7,592015125.5,480325008.4,376884137.7,265155373.6,202238252.9,181803502.5,171042023.7,117619860.0,112936448.6,105193702.9,103804908.6,94909516.3,88307538.3,84847193.4,80282480.8,71849715.5,67083431.5,40242793.9,20953606.6,8833074.5,2731924.9,1764110.8,1143925.1,325908.8,,,,,,,,,,,,,,,,,,,,,
BWA,Botswana,,1334338113.7,1451298407.2,1551795909.3,1670366310.2,1772453335.7,1917185781.9,1822894952.7,1942417459.0,1900015194.7,1358491275.9,1395265160.6,396793202.7,396301237.0,358173807.6,412308772.5,488026722.2,484649106.1,472423923.3,378874794.3,437755242.7,484498471.4,524739048.7,534727348.0,620518347.7,706959662.4,689168910.1,656225023.7,600044444.3,605924888.2,547143979.7,546281480.1,528845347.5,539146978.9,403923150.5,343662733.4,261914783.7,224122753.2,201807763.8,151540360.1,131629101.5,112896348.0,122537379.1,182561932.5,166353134.3,147979450.1,134055048.0,114920842.5,74756512.0,33201565.7,17358400.0,,,,,,,,,,
CAF,Central African Republic,,453619605.7,452876863.3,438585661.0,462090612.6,465065701.3,395645738.8,328104928.7,308825400.0,288005664.1,375833696.5,303055919.3,832099900.3,867203595.7,878713405.2,886615038.8,946211010.0,912858354.1,984353104.4,758407073.8,797330172.8,827703143.9,841130609.4,801503462.5,850364622.4,853947296.4,802413158.9,773206886.0,729611332.6,716923576.6,624105633.7,621429761.9,580144002.6,536516070.9,391798453.8,286441439.9,215242999.8,203003532.2,196315838.9,176244397.1,146543065.4,115881904.1,105737102.1,104228554.2,79236303.4,71299925.4,63878032.4,55258706.9,36274039.9,28153110.2,24056559.7,,,,,,,,,,
CAN,Canada,,,,,,,,,,,,,,,,,,,,,,,,,,,,,,,,,,,,,,,,,,,,,,,,,,,,,,,,,,,,,
CEB,Central Europe and the Baltics,,,,,,,,,,,,,,,,,,,,,,,,,,,,,,,,,,,,,,,,,,,,,,,,,,,,,,,,,,,,,
CHE,Switzerland,,,,,,,,,,,,,,,,,,,,,,,,,,,,,,,,,,,,,,,,,,,,,,,,,,,,,,,,,,,,,
CHI,Channel Islands,,,,,,,,,,,,,,,,,,,,,,,,,,,,,,,,,,,,,,,,,,,,,,,,,,,,,,,,,,,,,
CHL,Chile,,,,,,,,,,,,,,,,,,,,,,,,,,,,,,,,,,,,,,,,,,,,,,,,,,,,,,,,,,,,,
CHN,China,,318065160742.0,259689276891.4,196294033779.8,160191732378.2,146069937131.2,179064199001.1,152561906065.3,138524252708.4,114648968610.6,102293110378.6,100891560798.0,97118690618.0,91417699315.9,89045515644.3,86786427720.6,89091886600.6,83735890671.5,87656055951.7,91005032090.2,94759138895.7,95658535107.4,99650380396.4,113035590729.7,102480131407.6,94899530047.0,82601707411.3,70241238669.9,58573494534.7,49479186451.5,45515193868.2,37117932607.8,32620334460.8,25963179948.8,16571434200.4,9940225348.3,6185533891.8,5303637603.3,5222125925.8,4913954562.5,,,,,,,,,,,,,,,,,,,,,
CIV,Cote d'Ivoire,,15098716274.5,12690189514.4,10445092069.7,8368883419.9,8509794119.1,6619173862.7,6370446806.6,5050964454.7,9897100599.5,9413451309.5,12726239907.4,10639561413.8,11657862269.7,10833186445.6,9974818021.3,11090584224.7,9696151525.6,9101419989.2,8590705807.6,9063446458.9,9699057824.5,10799676637.8,10427060959.8,11366658369.7,11902075654.8,11240980480.3,11110602379.9,11243940128.6,11264584405.2,10665474515.7,9067854213.3,8609667533.2,9283173252.5,7568780934.7,5791163759.1,4758716282.5,4843381061.3,5019040297.9,4412917215.6,4326945129.8,3696673722.2,2822956025.4,1923562130.7,1202634484.7,966465061.7,703548278.3,583195403.9,400832810.3,353353853.5,255548111.5,,,,,,,,,,
CMR,Cameroon,,10274734285.9,9013883419.0,7954254176.5,6233790832.9,5730640194.5,4617061295.4,4073348644.8,2922758111.8,2123352540.4,2159703262.1,2166885986.1,2097496704.1,2156627427.2,2391544752.0,6467062408.8,9304023793.0,10049204565.9,9032685171.1,8324048316.8,8753280285.5,8983546798.4,9678171359.3,9181277818.1,9581322441.2,9714493035.8,8377201288.8,6564000547.1,6403594934.3,5497107003.6,5275534911.1,4274217337.8,3467742168.3,3286224303.7,2811449515.8,2206660088.4,1864070632.6,1992545325.8,1999480620.5,2099647041.1,2057795268.2,1703559595.0,1217182610.8,917499481.8,533645051.3,392956333.8,282337178.2,243649254.3,201456202.0,168202180.3,136726448.1,,,,,,,,,,
COD,"Congo, Dem. Rep.",,4098909570.6,4022897990.8,4004260137.3,3817429623.7,4065171598.7,4111523481.9,4428379951.7,4097503219.0,3991395504.4,4591771507.0,10873410305.5,10855488738.4,10897927315.3,9856831932.3,9395539745.6,10108494554.3,10135237153.2,8837570841.3,7578655685.6,7872312286.1,8254465348.4,9206638078.1,8620795783.6,9267681404.0,9627935985.5,9286069001.9,8773163934.6,8952842864.2,9277108620.9,8986138793.0,7969841403.2,6933437389.8,7199696301.8,5917446891.8,4958299367.3,4284267497.0,4433545094.0,4072073750.8,4224367345.3,4071562244.7,3618848322.3,3686892163.4,3005348103.7,2380271246.6,1726400662.4,1349128270.7,910323029.2,579940697.1,370049468.9,311217589.6,,,,,,,,,,
COG,"Congo, Rep.",,5801030059.1,3932862932.1,3969054253.5,3695733536.4,3648094654.0,3915832640.4,3635163456.8,3111247308.8,2815751503.7,2442593622.9,4622537242.7,5078439417.7,4899333720.1,5815589154.6,5465467295.2,5839975669.4,4446808317.8,3992496908.5,3648042217.4,3748049606.3,3921705913.6,4239489045.5,4267006587.0,4667295433.0,4981097707.6,4791853754.0,4140336915.6,3843699063.0,4005391036.7,4173382135.1,3461315041.1,3450492250.8,3366726838.9,2783703612.3,2352413397.6,1857511540.9,1839910338.3,1758904645.5,1362347557.5,1257934442.0,836549376.3,639428914.5,439042822.5,374368000.6,352696439.2,256671368.3,186076201.8,156697194.7,139314792.2,118502214.1,,,,,,,,,,
COL,Colombia,,74587027605.9,74384268934.3,73968095244.4,73026471887.1,69099747174.8,61616251366.8,53594413976.6,46180960070.5,41592552980.3,37057569573.3,35547219160.7,29206712361.1,27658024422.1,24933939012.2,22496235367.8,23921919034.5,22941091658.3,20891296811.6,21999603692.5,21050131722.0,20484869361.2,17087220455.2,15772746233.6,15161176223.1,14249064679.9,14637494449.2,13528977691.7,13759851513.6,14651153215.5,14859805244.2,14178388603.2,14043848825.8,14042283563.2,12401354987.2,9802264713.7,7969130041.0,7101494606.6,6203980135.4,5285377457.4,4283607164.5,3571966897.1,2996643740.9,2879469210.6,2657797359.3,2555674960.3,2312017082.7,2106835665.2,1811726928.6,1558205470.3,1397220268.9,,,,,,,,,,
COM,Comoros,,267155705.8,259271047.8,170060490.6,162491707.1,99886719.6,109246667.4,113072713.3,220204664.8,243307922.6,248519996.8,258575325.7,264357820.5,274908703.8,256013134.9,253858778.7,269161663.7,261258547.2,239620276.1,217100297.2,201751874.3,208544858.8,214394740.1,205621810.8,208304454.2,195593274.6,184032550.8,169889277.5,174867051.7,165662112.9,172430840.2,161903916.5,188820740.6,188184258.8,158861184.2,129648522.8,101544386.8,83632329.9,67834926.1,52800843.4,42975472.9,38455347.1,27995279.3,23395332.8,18486295.3,4721546.0,4294057.5,1691961.4,1506741.7,1238316.0,1172240.8,,,,,,,,,,
CPV,Cabo Verde,,1808484670.5,1754699609.8,1776912425.9,1539407377.6,1537479331.3,1537031524.7,1477009776.5,1231063985.8,1021269244.4,861910767.9,697711573.9,611383796.3,564854014.2,509521549.2,463306665.9,452618676.5,431385788.8,380584683.0,341256876.3,314987566.1,308449740.9,241245026.2,199573453.7,196709703.1,184899804.7,166142676.1,140614318.2,135988629.8,129530990.0,129104576.6,123606668.9,119836332.9,119133293.6,106430830.0,93895968.8,76251079.2,71694378.4,59004887.4,39370101.9,,,,,,,,,,,,,,,,,,,,,
CRI,Costa Rica,,13414034626.4,11940344199.8,11037437508.6,11053717983.2,10146715170.4,8819402004.5,7466508631.4,4977355203.1,3968455371.6,3821996704.6,3208135710.6,3224025244.4,3646179472.2,3309542783.3,3159253414.0,3512063554.1,3847645620.5,3381618031.0,3519757576.7,3512750652.1,3194794237.3,3039871958.5,2787490055.8,2949124760.9,3176200114.3,3269668922.9,3191319979.4,3243964186.8,3366689938.6,3145594865.0,3635257763.8,3642763048.5,3813657285.7,3735873468.7,3645379641.9,3299626970.5,3261186880.8,2514108996.4,2331602527.2,1819191188.2,1424181888.3,1052271965.1,830800622.6,632520616.7,495900803.0,363784803.3,301145368.3,248425832.2,202951659.7,167205203.5,,,,,,,,,,
CSS,Caribbean small states,,,,,,,,,,,,,,,,,,,,,,,,,,,,,,,,,,,,,,,,,,,,,,,,,,,,,,,,,,,,,
CUB,Cuba,,,,,,,,,,,,,,,,,,,,,,,,,,,,,,,,,,,,,,,,,,,,,,,,,,,,,,,,,,,,,
CUW,Curacao,,,,,,,,,,,,,,,,,,,,,,,,,,,,,,,,,,,,,,,,,,,,,,,,,,,,,,,,,,,,,
CYM,Cayman Islands,,,,,,,,,,,,,,,,,,,,,,,,,,,,,,,,,,,,,,,,,,,,,,,,,,,,,,,,,,,,,
CYP,Cyprus,,,,,,,,,,,,,,,,,,,,,,,,,,,,,,,,,,,,,,,,,,,,,,,,,,,,,,,,,,,,,
CZE,Czech Republic,,,,,,,,,,,,,,,,,,,,,,,,,,,,,,,,,,,,,,,,,,,,,,,,,,,,,,,,,,,,,
DEU,Germany,,,,,,,,,,,,,,,,,,,,,,,,,,,,,,,,,,,,,,,,,,,,,,,,,,,,,,,,,,,,,
DJI,Djibouti,,2145345516.8,2044814502.5,1944675782.9,1601684768.3,1173392313.6,812269282.8,664123477.2,631863758.4,640604942.6,611151376.6,738322488.3,678902179.1,650903161.8,441310144.7,378947746.7,389858450.7,361863244.4,301173515.1,236501053.7,238226247.1,248442965.5,263830870.5,253043627.9,279256180.7,268896250.1,254902769.9,230941357.3,219333161.1,204686617.5,155214371.1,131249634.3,158287377.7,154398153.6,119210371.4,95976961.9,61689458.7,33566963.8,24412686.7,19839075.3,25819344.9,20521872.5,21045654.3,19240608.5,17257778.4,12235670.8,8215540.5,6284821.9,5368001.3,2637248.5,2594794.2,,,,,,,,,,
DMA,Dominica,,250663619.5,247802271.4,264476043.5,267117680.4,285163451.7,281789388.7,280436287.8,272670207.4,247580583.5,235618826.2,217933286.6,221911559.8,232939635.2,235938849.4,241254953.3,244648126.5,224771350.7,218947142.1,210133915.8,163554633.4,114531130.5,95991269.3,92864586.8,100027756.8,96402573.8,90196402.5,94252814.3,90775407.8,90295835.4,83048532.8,72179124.5,65181768.9,63702557.9,51834138.2,48608420.9,41032178.4,27633669.8,20321009.3,14328422.0,,,,,,,,,,,,,,,,,,,,,
DNK,Denmark,,,,,,,,,,,,,,,,,,,,,,,,,,,,,,,,,,,,,,,,,,,,,,,,,,,,,,,,,,,,,
DOM,Dominican Republic,,27584094472.5,23484978211.7,20226041672.5,17185646504.1,15814826809.5,15700687074.9,14174659967.2,11983231961.5,10761625596.7,9440605901.9,8162234144.9,7285303130.5,6825216064.8,6904003701.7,6417573059.9,6650504553.6,6068332039.8,4370725844.9,3866675465.5,3381317999.2,3649735993.8,3552745882.6,3531288627.1,3607285590.1,3738039284.7,3710774822.4,3889139626.4,3840188068.8,3865336994.2,3531890899.7,3429844724.2,3363982403.9,3309428213.9,3004456145.1,2762006933.3,2436300029.4,2277735888.6,1744221650.4,1478441612.9,1299082218.6,943894848.3,804982128.4,674749224.7,567902030.7,467672433.4,402066126.1,358758715.8,318541325.0,268840000.0,241594000.0,,,,,,,,,,
DZA,Algeria,,1398101836.3,1522768093.9,1715819260.9,1652620914.5,870119619.9,1124857512.0,1451906087.2,1647243279.4,2254593628.2,2662009109.6,3061890020.8,3294773388.1,4028919897.9,3861100197.0,15516210412.6,20432059902.0,21886748998.2,21318628653.0,20869481309.5,23353958638.9,25925520612.0,28490223340.7,28716820456.3,31292311263.5,31310442886.3,28444024246.1,25102041792.8,25762303665.8,26255512108.9,26692900053.7,24789965821.9,24480817226.2,23133428591.3,19497646536.7,16398741782.4,14131285871.5,14410488197.1,14888470178.6,16063318142.2,17038299072.8,16572548616.7,13748600491.0,8912959726.9,6114379902.6,4632815496.7,3365980296.4,2991368810.9,1549785827.5,1260807888.7,939559305.4,,,,,,,,,,
EAP,East Asia & Pacific (excluding high income),,727447905087.8,640804082619.8,545958309057.3,475650166773.3,442381577997.7,457614476429.1,414386829502.9,400160533076.6,346043985570.5,318116825969.3,296562499626.8,273208137280.8,252979931808.9,244875787359.4,243345013538.7,243243457806.0,240894046318.4,240237724310.8,239599169048.7,252821999729.7,269380620818.8,256979350344.1,248782621107.1,240584823355.5,239901423745.5,227080962264.8,203065771874.9,184238794101.5,172197188790.2,160624433318.6,143549258914.1,118007687672.2,111748170871.0,86507627363.2,65619619493.2,51411903421.2,48547360414.4,42261907800.3,36663155230.4,32668960098.6,25638057418.3,21561365869.9,17159046555.1,14048693010.2,10967829134.7,8839875552.2,7259422675.6,5855916534.7,4782595697.6,3643516593.4,,,,,,,,,,
EAR,Early-demographic dividend,,,,,,,,,,,,,,,,,,,,,,,,,,,,,,,,,,,,,,,,,,,,,,,,,,,,,,,,,,,,,
EAS,East Asia & Pacific,,,,,,,,,,,,,,,,,,,,,,,,,,,,,,,,,,,,,,,,,,,,,,,,,,,,,,,,,,,,,
ECA,Europe & Central Asia (excluding high income),,492628203806.6,466481755708.7,500844443308.8,446560872435.7,435927114025.7,462816722572.6,499282657196.6,415156073399.7,381130348446.5,339432948351.0,302189137787.6,268447038984.4,262662953094.5,213603789948.5,184276949602.7,210797970734.0,197584054093.3,182948601885.6,180117450496.5,188021473441.2,211487856071.1,209312660451.8,188951392127.1,183684989035.9,185173065355.6,185090592201.1,173913518682.5,126842574856.4,116504539017.0,109243884999.7,94127630068.0,87099803284.8,83609246532.6,66369645692.1,55918234031.3,45128780991.4,30325129555.1,27329181674.1,25346819734.6,24497922609.7,16682249554.2,11720717665.4,8624533660.1,7061188003.3,6815128896.3,5314182375.9,4834373093.4,4138408872.2,3655204669.7,3116650995.8,,,,,,,,,,
ECS,Europe & Central Asia,,,,,,,,,,,,,,,,,,,,,,,,,,,,,,,,,,,,,,,,,,,,,,,,,,,,,,,,,,,,,
ECU,Ecuador,,38396382309.7,35480873774.9,31628976305.7,25571528367.5,20153257015.9,17586106464.9,12482167466.6,10413411880.2,10151521365.3,8787331017.8,7102384140.2,13328113926.3,13978901613.0,13561421252.8,14108970339.8,14123418885.1,14479629046.8,14320657124.6,14533332984.6,14751635808.4,16354233280.1,15961956834.1,15813115366.1,15396776634.4,15075259500.5,13581933331.5,9943744545.9,9813875870.1,10003665701.6,9920316970.6,9485749448.0,9091534681.9,9071272781.5,8343481777.2,7288214242.7,6649718044.1,5644166367.7,3987975417.0,4299236471.0,3412423611.2,2714392148.3,2330101233.8,1223164571.4,695102930.2,522279992.3,378998193.9,366739123.7,334419121.8,254792965.1,233172588.1,,,,,,,,,,
EGY,"Egypt, Arab Rep.",,90305231428.6,80179102575.2,65786685016.4,53205854615.9,44154342710.9,37097621717.2,42289424456.2,31970126683.1,30753877033.7,32188678423.2,31353825392.6,30779782456.5,32123617072.3,29020055262.6,28632851339.9,29388129147.5,28085162986.7,26678389185.5,25335272473.8,24378843161.9,26159653365.9,27701364757.6,26829660291.7,29022026190.8,30686733372.4,29998503683.4,27944438950.6,27848902857.0,28526194762.8,27440706699.1,36548557957.1,37955647979.5,36429604880.0,31676294963.8,28994517159.3,25648856499.3,24170956669.0,21539803773.1,17804789074.6,14427943957.6,10426470111.3,8908863787.8,6994314961.5,4607301059.0,3631411064.8,1500786305.2,1390765328.6,1449772738.5,1494626793.0,1351123116.7,,,,,,,,,,
EMU,Euro area,,,,,,,,,,,,,,,,,,,,,,,,,,,,,,,,,,,,,,,,,,,,,,,,,,,,,,,,,,,,,
ERI,Eritrea,,718072736.7,736129760.8,772043390.2,750284109.0,782432705.8,828875547.6,894370641.1,949663939.2,1010014612.5,998425572.6,1012986669.3,956964488.3,855667833.1,781370032.2,722988768.9,703995465.6,605124676.5,489213774.9,394848948.3,297996112.2,252557948.3,146136192.0,75455613.8,44286454.5,36689461.6,29056800.1,,,,,,,,,,,,,,,,,,,,,,,,,,,,,,,,,,
ESP,Spain,,,,,,,,,,,,,,,,,,,,,,,,,,,,,,,,,,,,,,,,,,,,,,,,,,,,,,,,,,,,,
EST,Estonia,,,,,,,,,,,,,,,,,,,,,,,,,,,,,,,,,,,,,,,,,,,,,,,,,,,,,,,,,,,,,
ETH,Ethiopia,,27489826584.4,26801994078.4,25298154829.6,22211483466.1,19572569126.8,16201525305.3,11895145661.7,9943542985.8,7941678312.4,6498839699.6,4762971186.8,2771253451.3,2507570774.5,2141206027.3,5871759061.5,6294821452.3,7043842799.3,6337040280.1,5572556283.0,5338840853.8,5374811148.4,9627396781.9,9438270853.5,9497620197.3,9789956593.1,9583586821.6,9300872875.6,9017502979.4,8857863685.9,8493402568.4,7713650695.9,7528443373.5,7204116850.1,5977039364.2,5063985605.7,4056435979.6,3648825436.0,3051068408.0,1638380176.8,687723748.4,601925518.8,500427306.5,447327486.8,402115045.9,343568365.0,283110667.9,256377243.8,226245546.5,203996145.2,168939507.9,,,,,,,,,,
EUU,European Union,,,,,,,,,,,,,,,,,,,,,,,,,,,,,,,,,,,,,,,,,,,,,,,,,,,,,,,,,,,,,
FCS,Fragile and conflict affected situations,,,,,,,,,,,,,,,,,,,,,,,,,,,,,,,,,,,,,,,,,,,,,,,,,,,,,,,,,,,,,
FIN,Finland,,,,,,,,,,,,,,,,,,,,,,,,,,,,,,,,,,,,,,,,,,,,,,,,,,,,,,,,,,,,,
FJI,Fiji,,700938327.3,713563888.7,716911511.5,661637247.9,616912227.6,668202921.0,621410165.5,576807256.0,511711690.8,352650316.7,319493506.2,314398527.1,292759860.7,276863326.7,112451223.2,119635789.4,110545869.0,96638718.1,87531697.4,101363160.6,121203309.2,140162617.7,129982834.7,147231142.2,168397716.6,180750454.2,199478307.5,226882233.9,270638389.8,306007243.1,301619261.0,335554335.6,336440372.7,311749142.3,302190653.4,279360182.5,292306077.7,265492413.9,237430731.2,180023796.5,109858873.4,84713454.6,86503321.1,63869447.1,59299120.5,54091121.5,47197248.0,20721484.6,14810208.6,11665440.0,,,,,,,,,,
FRA,France,,,,,,,,,,,,,,,,,,,,,,,,,,,,,,,,,,,,,,,,,,,,,,,,,,,,,,,,,,,,,
FRO,Faroe Islands,,,,,,,,,,,,,,,,,,,,,,,,,,,,,,,,,,,,,,,,,,,,,,,,,,,,,,,,,,,,,
FSM,"Micronesia, Fed. Sts.",,,,,,,,,,,,,,,,,,,,,,,,,,,,,,,,,,,,,,,,,,,,,,,,,,,,,,,,,,,,,
GAB,Gabon,,6111849761.7,5977683237.5,5879617176.6,4898066232.1,4705671157.6,4372127934.3,4335671959.6,2916907840.4,2785823798.2,2532428807.3,2391603428.9,2364015998.7,4651915486.1,3876208262.0,3662935226.7,3820448962.8,3403687880.6,3200579835.6,3053748529.0,3467386262.9,3298826096.4,3839063694.5,3669448155.0,3974742386.8,3978781538.6,3696388258.2,2934412123.9,3049231870.6,3224539550.3,3150161028.0,2610611980.6,2300736619.1,2152492627.7,1430907856.7,944156735.6,668336300.7,679888848.2,817323472.4,975288589.4,1271492888.9,1461524196.9,1288897017.9,1255400117.3,1079281993.0,771643164.9,462014042.9,346230224.3,200636306.8,127538293.9,90822382.2,,,,,,,,,,
GBR,United Kingdom,,,,,,,,,,,,,,,,,,,,,,,,,,,,,,,,,,,,,,,,,,,,,,,,,,,,,,,,,,,,,
GEO,Georgia,,6993315674.1,6748644984.1,6615190678.0,6223518632.1,5720942918.8,5576085142.0,5362985523.5,5101829571.3,3800454115.3,3274442669.6,3529385231.4,2973795668.6,1603623955.9,1526003681.1,1531197607.5,1621810496.6,1564042721.8,1444868231.7,1310633093.6,1273929510.1,1309130472.5,1300986585.2,1189544166.8,1106265379.2,1039406587.2,924074514.6,558821942.1,79312483.0,,,,,,,,,,,,,,,,,,,,,,,,,,,,,,,,
GHA,Ghana,,20491515175.1,17937218393.0,17285372487.3,16744443925.4,15316675311.6,13390840465.9,11241552104.5,8133877133.3,6617770132.8,5337797713.6,4272796475.0,3332518814.7,2812610645.3,2264846585.6,6055971061.9,6122882409.9,6996114745.1,6301314417.6,5784523756.7,5582081309.8,5729170209.4,5651031065.4,5056195458.8,4975683702.6,4639092693.4,4156864911.4,3637755319.7,3319164182.9,3118584456.4,2783264458.4,2427368816.2,2258739632.3,2295280625.0,1754599304.2,1325167350.5,1173701990.9,1221002353.4,1184975790.6,1157436864.3,1152354407.7,961061883.0,857019451.5,785457424.9,652772035.0,659588910.7,714912552.5,722780515.7,574681995.3,507190674.9,510982105.0,,,,,,,,,,
GIB,Gibraltar,,,,,,,,,,,,,,,,,,,,,,,,,,,,,,,,,,,,,,,,,,,,,,,,,,,,,,,,,,,,,
GIN,Guinea,,2177396169.6,1776212643.6,1679676150.8,1621842989.8,1585262851.2,1489624387.7,1403994011.3,1148132508.0,3161805593.9,3132240697.2,3241540908.7,3236387078.3,3376074494.9,3208393013.4,3063432948.2,3144455138.9,2892669071.3,2666911541.6,2503390325.1,2584458509.5,2714660758.2,3078791934.9,2955914596.2,2934433978.3,2942746822.9,2835835567.0,2598582020.5,2415091334.9,2349276330.1,2203714267.7,1958820570.1,2037876944.1,1891153947.5,1630285041.6,1300852272.7,1128617730.0,1211284121.2,1237823841.3,1256540871.5,1023695509.1,1021071958.6,952886706.0,840814099.4,801414101.1,755138605.8,724051757.8,615029705.3,509598164.6,438918171.3,328182548.1,,,,,,,,,,
GMB,"Gambia, The",,616638924.4,594451847.8,560623437.9,429403032.4,434831408.2,424760148.4,444279128.2,425330052.1,424786072.7,426354020.2,409639495.9,365696229.9,664037249.1,674416547.1,616539049.5,621430898.1,568085910.8,507400616.6,435375298.5,437959707.8,431194027.1,433604047.1,401195506.4,411862520.0,385473760.7,368066036.2,350159196.9,346226218.3,322452862.5,308446986.7,288962229.1,276980829.9,265492495.6,212130255.2,176699686.1,151705575.2,151731758.1,147410123.2,132273742.3,97324084.8,47540142.7,24532734.7,25827151.0,15427601.5,13415000.0,12224401.5,8860001.6,7363300.6,5479788.1,5076000.0,,,,,,,,,,
GNB,Guinea-Bissau,,506983074.0,424168645.2,351662513.8,261238875.2,264894613.6,240665229.5,233592194.0,231212708.7,235735146.9,993606809.5,978496302.5,947366324.6,935767620.5,911043893.7,888782552.3,976602501.1,919406296.7,840235175.2,779769248.0,822114444.8,837641984.8,877406704.7,836912540.2,853800081.7,793071048.3,758770194.3,712369011.4,692538804.3,678702271.4,632705026.6,552205428.7,525151745.8,446201751.6,349218030.7,276038842.2,200529610.1,159156754.6,152086915.7,141645522.8,131001703.7,64387815.6,45971714.4,24632862.3,16065701.6,7903500.5,0.0,,,,,,,,,,,,,,
GNQ,Equatorial Guinea,,,,,,,,,,,,,,,,,,,,,,,,,,,,,,,,,,,,,,,,,,,,,,,,,,,,,,,,,,,,,
GRC,Greece,,,,,,,,,,,,,,,,,,,,,,,,,,,,,,,,,,,,,,,,,,,,,,,,,,,,,,,,,,,,,
GRD,Grenada,,500964603.3,494523172.3,476844242.9,531679671.2,537390185.9,512968160.3,495274711.9,472931848.5,470557369.3,476704201.8,477761359.7,460266617.0,433571022.4,408837769.5,345175787.2,346742454.3,300106720.3,294919418.1,184755205.9,180668392.5,112966546.8,108043158.6,108660524.1,119875817.4,113517081.0,114654191.6,106145493.7,105813445.4,110854583.2,100016760.1,80632815.7,80000006.1,74877454.2,60458320.1,53914375.7,47586138.6,48310116.0,36463226.8,23742195.2,17753106.6,17192916.3,15439737.4,11666064.3,9236862.4,9577650.0,9274607.5,8980951.9,8931619.7,9107715.9,16048000.0,,,,,,,,,,
GRL,Greenland,,,,,,,,,,,,,,,,,,,,,,,,,,,,,,,,,,,,,,,,,,,,,,,,,,,,,,,,,,,,,
GTM,Guatemala,,9342531287.9,8428248885.2,8365983490.9,8147604566.3,7544216426.0,6999860265.1,7059125578.8,6305706398.4,5354012787.9,5559198592.1,4925728547.7,4384590154.6,4222076232.8,3953321051.8,3720330899.0,3827820022.9,3460917347.9,3154595429.2,2986744402.2,2598419630.0,2586246842.5,2480117617.9,2390907049.5,2276611049.5,2381442453.7,2351530455.6,2128385898.8,2176760272.4,2280827155.3,2299478880.0,2178196543.6,2206887481.2,2431983004.6,2414355177.2,2299293340.4,2079419261.1,1512387830.4,1261245085.8,911102607.7,652754662.5,529203893.7,400888330.4,309635179.9,246475440.0,217868000.0,187354000.0,176352000.0,157565000.0,154503000.0,139905000.0,,,,,,,,,,
GUM,Guam,,,,,,,,,,,,,,,,,,,,,,,,,,,,,,,,,,,,,,,,,,,,,,,,,,,,,,,,,,,,,
GUY,Guyana,,1251018759.3,1204822656.8,1134951762.8,1049038422.2,1031291976.7,1098254312.4,1116457646.6,1215488946.3,1054562354.0,885284305.4,779602970.9,675244480.9,584039310.2,923405903.3,1041352503.6,1141353172.2,1216694727.1,1144950807.1,1095730195.7,1124611114.4,1130692967.1,1200018712.0,1331102774.3,1353841993.5,1796778634.0,1802084793.6,1746036643.0,1691072728.5,1778284238.7,1775526249.9,1288201138.4,1022591195.7,995744106.0,897230591.5,816367132.4,738022142.3,759718246.1,740470477.2,704583744.9,638679157.7,560058371.3,493013146.5,458089732.0,405407698.4,327020332.4,213859020.1,173516657.6,157899579.3,154456061.4,82870994.6,,,,,,,,,,
HIC,High income,,,,,,,,,,,,,,,,,,,,,,,,,,,,,,,,,,,,,,,,,,,,,,,,,,,,,,,,,,,,,
HKG,"Hong Kong SAR, China",,,,,,,,,,,,,,,,,,,,,,,,,,,,,,,,,,,,,,,,,,,,,,,,,,,,,,,,,,,,,
HND,Honduras,,7775985371.2,7350498317.4,7126244637.2,6084239178.3,5921242691.0,5568468020.8,5206401556.2,3677449369.7,3217995723.9,2834475232.5,2480951447.1,2334245028.2,2008051518.7,3008525317.2,4144881601.2,4989655532.3,4614178239.1,4277411404.1,4080203135.4,4442372937.8,4355936207.9,4044295120.6,4151095561.7,4113825479.6,4308214293.4,4258328962.5,4001778070.9,3587796065.9,3181445772.8,3517442797.4,2972740557.7,2873668603.9,2819363224.4,2502773314.2,2264868806.8,1897038896.0,1739733835.9,1518777096.5,1339381318.7,1076609838.8,845574388.2,686355382.0,542281446.7,423159074.9,335602929.3,241740024.7,193695856.2,176579512.3,159225800.6,139132049.5,,,,,,,,,,
HPC,Heavily indebted poor countries (HIPC),,,,,,,,,,,,,,,,,,,,,,,,,,,,,,,,,,,,,,,,,,,,,,,,,,,,,,,,,,,,,
HRV,Croatia,,,,,,,,,,,,,,,,,,,,,,,,,,,,,,,,,,,,,,,,,,,,,,,,,,,,,,,,,,,,,
HTI,Haiti,,2012048564.4,2018821880.2,1954370459.7,1946623589.8,1913774725.9,1773020870.3,1388077712.7,994297199.0,627636589.1,824036930.8,1157582929.0,1838106507.3,1524554791.3,1346140839.5,1277911305.4,1225006092.3,1210141672.6,1077896239.2,1043602215.4,1055928995.5,1058681316.4,1000866066.7,921503579.6,863084403.4,782085358.6,674399528.7,689742594.2,682608146.5,667194088.4,800542899.4,741043985.0,742077174.7,734424096.4,639214657.4,587455255.1,542101075.5,499216571.5,468609492.3,417486888.4,322481650.6,291094724.7,255438150.7,214776253.1,166958414.7,134454550.0,116681300.0,51307000.0,53696000.0,48837000.0,49274000.0,,,,,,,,,,
HUN,Hungary,,,,,,,,,,,,,,,,,,,,,,,,,,,,,,,,,,,,,,,,,,,,,,,,,,,,,,,,,,,,,
IBD,IBRD only,,,,,,,,,,,,,,,,,,,,,,,,,,,,,,,,,,,,,,,,,,,,,,,,,,,,,,,,,,,,,
IBT,IDA & IBRD total,,,,,,,,,,,,,,,,,,,,,,,,,,,,,,,,,,,,,,,,,,,,,,,,,,,,,,,,,,,,,
IDA,IDA total,,,,,,,,,,,,,,,,,,,,,,,,,,,,,,,,,,,,,,,,,,,,,,,,,,,,,,,,,,,,,
IDB,IDA blend,,,,,,,,,,,,,,,,,,,,,,,,,,,,,,,,,,,,,,,,,,,,,,,,,,,,,,,,,,,,,
IDN,Indonesia,,233505345861.2,215072384419.4,194953210975.4,177073049606.0,159571331600.3,142185011503.6,128197301060.1,127405054019.8,108145988093.7,102747656653.5,97457367374.0,87763206854.3,80287747385.3,76635958550.5,77716810204.1,72414171020.1,74511532834.5,71605445734.8,68860119636.6,70042793095.1,73936300133.2,67553850804.4,56035596435.3,60078734948.0,65310012875.8,63921831286.8,57141126589.4,53649251692.3,51871860844.5,47958793863.0,44240527545.8,41158754894.8,40878819897.0,32618565378.8,26783052568.2,22273353802.3,21492883588.6,18317280486.7,15908139319.3,15020697366.2,13375748316.7,13219712413.7,11703538470.3,10003058797.7,7993812015.2,6357920877.2,5244679342.0,4203423463.7,3426387550.4,2486792436.8,,,,,,,,,,
IDX,IDA only,,,,,,,,,,,,,,,,,,,,,,,,,,,,,,,,,,,,,,,,,,,,,,,,,,,,,,,,,,,,,
IMN,Isle of Man,,,,,,,,,,,,,,,,,,,,,,,,,,,,,,,,,,,,,,,,,,,,,,,,,,,,,,,,,,,,,
IND,India,,191797163545.0,180398585591.5,182916362967.3,152973478921.7,162305462267.5,152515175893.8,121461809816.6,119894787271.8,107925728806.8,100563268387.3,85292987532.0,76316355718.7,69907662407.0,60043036763.4,54726130598.6,64879489000.4,63672563184.6,82052143163.6,78977934811.4,81195987974.9,86941297896.5,85297283935.0,79134165510.6,78496831453.6,79726262374.7,83174277344.0,81033169952.3,75510006181.5,72638616392.8,70668176610.5,63086800566.1,48778967923.5,41985960928.6,34038628690.1,28416786295.9,23344418438.3,21490064957.4,19992414223.2,18386340033.5,18102398267.7,17157384895.1,15521249175.3,14535697348.6,13320327138.4,12298090794.8,11384438629.8,10374020720.3,9579268976.8,8910742281.7,8042121119.4,,,,,,,,,,
INX,Not classified,,,,,,,,,,,,,,,,,,,,,,,,,,,,,,,,,,,,,,,,,,,,,,,,,,,,,,,,,,,,,
IRL,Ireland,,,,,,,,,,,,,,,,,,,,,,,,,,,,,,,,,,,,,,,,,,,,,,,,,,,,,,,,,,,,,
IRN,"Iran, Islamic Rep.",,348396869.9,437153022.7,589273006.1,826827142.6,2457783327.2,3320128109.2,4040208453.2,4347212143.9,4750904847.8,5959567188.3,7587364962.4,9051738039.5,10557402686.2,11027068414.8,10358699016.5,10318326438.1,9081712876.5,6525706217.3,5322366068.1,4804270475.5,5789325393.2,7838637905.1,8343457942.2,11929261304.9,15232160147.2,15080944640.9,5788948305.2,1770977212.7,2102639926.0,1802121418.4,1870034620.8,2067350938.2,2286338031.2,2380187858.5,2358346313.5,2456631507.1,2938741679.1,3500536474.8,3901452516.3,4618915613.2,,,,,,,,,,,,,,,,,,,,
IRQ,Iraq,,,,,,,,,,,,,,,,,,,,,,,,,,,,,,,,,,,,,,,,,,,,,,,,,,,,,,,,,,,,,
ISL,Iceland,,,,,,,,,,,,,,,,,,,,,,,,,,,,,,,,,,,,,,,,,,,,,,,,,,,,,,,,,,,,,
ISR,Israel,,,,,,,,,,,,,,,,,,,,,,,,,,,,,,,,,,,,,,,,,,,,,,,,,,,,,,,,,,,,,
ITA,Italy,,,,,,,,,,,,,,,,,,,,,,,,,,,,,,,,,,,,,,,,,,,,,,,,,,,,,,,,,,,,,
JAM,Jamaica,,9407055404.3,9758921430.9,9929440350.7,9506673571.8,9648201014.4,7996229905.9,7451680866.3,7398933328.4,7767815117.9,7608746446.8,6724192677.9,6951713813.9,6759471140.9,6150017566.0,5563270526.9,5293330523.7,4592223984.4,4662587409.1,4368467466.7,3819313045.9,2945054025.1,3037174746.7,2834641385.9,3242919847.7,3762498348.6,3772693328.8,3773525464.2,3942570717.8,3918522944.1,4054119104.4,3849571763.7,3810023570.9,3803206559.3,3337072645.9,3200649518.7,2686536808.8,2504459245.0,2145000474.6,1747725709.2,1451118149.2,1208108776.2,1097557880.6,988387806.9,941384903.1,712385573.4,544388380.0,366690366.0,227172114.5,191879724.6,159640878.3,,,,,,,,,,
JOR,Jordan,,17087586743.7,16594661246.6,15339641701.8,12688600304.0,11047974172.4,9730525610.1,8881410170.5,6314346390.2,6325169871.4,6510286763.6,5461379209.3,5140969156.1,7340414154.5,7159367351.3,6887458834.5,7227186778.8,7172592786.8,7071702223.8,6632336691.3,6182833611.0,6714088206.3,6498317193.1,6143427623.8,6448097309.4,6624243886.8,6734275070.5,6798182048.8,7077948680.6,7613499829.2,7201824778.7,6416895387.1,5539120340.7,4859119348.0,3997864193.6,3189247661.2,2605260308.2,2444344329.3,2040295992.9,1658050732.8,1381495707.8,1128701310.1,901794960.7,679954734.8,428949521.1,340706534.1,269253379.6,212154196.9,173796481.2,147270361.6,119092816.3,,,,,,,,,,
JPN,Japan,,,,,,,,,,,,,,,,,,,,,,,,,,,,,,,,,,,,,,,,,,,,,,,,,,,,,,,,,,,,,
KAZ,Kazakhstan,,24715617690.6,24181411568.9,21295483778.8,21424582661.9,20113643110.4,15123605224.7,12316687169.3,7403663733.2,4683346738.1,3845400702.0,2486919435.6,1914944960.3,1697673219.1,2136184355.0,2176814017.9,3233697361.7,3468484699.8,3210366374.4,3450228171.8,3622524708.4,3360066647.7,3037778280.6,2621642893.7,1946478598.0,2833835988.6,2226969331.4,1621139995.2,25747844.5,,,,,,,,,,,,,,,,,,,,,,,,,,,,,,,,
KEN,Kenya,,30069061485.8,26242413072.2,21645518569.3,17150272429.9,15139072887.5,13300387501.4,9793039229.0,9003670570.9,7763901101.7,6998130845.9,6740744848.6,6409987639.8,6254466278.0,5893003013.2,5787898105.0,6084346381.0,5832311074.0,5250540367.9,4711201425.9,5040546163.2,5343426138.9,5512444777.8,5093209965.1,5573786122.7,5856907963.3,5512564034.8,5245781902.2,5149098757.2,5265651563.4,4758759228.7,4193823254.4,4172166824.7,4197678002.9,3309769966.4,2670555671.6,2287369367.8,2258435038.1,2249976059.5,2133815203.0,2055524898.6,1666360800.8,1243386532.1,1021267561.9,763624398.1,630668292.3,595846039.0,516512118.3,390449438.1,344594895.5,320999124.6,,,,,,,,,,
KGZ,Kyrgyz Republic,,3719677595.2,3660464940.2,3892462673.6,3609168322.7,3430938998.1,3252172984.3,2956218563.5,2849833056.9,2625642161.2,2445760663.4,2319398012.3,1962692054.0,1895677802.1,1828669476.9,1664798694.6,1740484968.7,1584515242.6,1397306326.2,1256777489.3,1220286348.7,1134415851.2,933903095.9,750609307.4,626272997.6,472183244.5,356088043.6,231716372.3,5527412.0,,,,,,,,,,,,,,,,,,,,,,,,,,,,,,,,
KHM,Cambodia,,7550626907.7,6983687236.0,6565810219.1,5820440750.2,5625763262.9,5240156074.1,4800984352.7,4274275527.1,3453515071.5,3048760077.7,2738606988.7,2535226071.2,2212896367.1,2998806859.5,2827988539.8,2766459346.0,2555199087.9,2274087347.9,2079577683.5,2014851808.2,1972787895.9,1934401297.3,1865737649.5,1846998619.6,1782292392.5,1699336354.8,1636561345.1,1630553706.1,1639083999.0,208523153.1,204411603.2,163469000.0,163469000.0,163469000.0,163469000.0,163469000.0,163469000.0,163469000.0,163469000.0,,,,,,,,,,,,,,,,,,,,,
KIR,Kiribati,,,,,,,,,,,,,,,,,,,,,,,,,,,,,,,,,,,,,,,,,,,,,,,,,,,,,,,,,,,,,
KNA,St. Kitts and Nevis,,,,,,,,,,,198148000.0,222850000.0,244432000.0,269686000.0,285200000.0,290336000.0,312616000.0,313970000.0,264750000.0,214558000.0,152989000.0,133755000.0,124361000.0,112003000.0,62645000.0,54172000.0,55235000.0,49758000.0,47432000.0,48620000.0,44167000.0,36481000.0,26597000.0,21115000.0,16888000.0,12804000.0,10594000.0,,,,,,,,,,,,,,,,,,,,,,,,
KOR,"Korea, Rep.",,,,,,,,,,,,,,,,,,,,,,,,,,,,,,,,,,,,,,,,,,,,,,,,,,,,,,,,,,,,,
KWT,Kuwait,,,,,,,,,,,,,,,,,,,,,,,,,,,,,,,,,,,,,,,,,,,,,,,,,,,,,,,,,,,,,
LAC,Latin America & Caribbean (excluding high income),,919015638599.2,912286423119.4,877580479987.7,814279693646.7,758476031270.6,735323539729.8,642433914931.8,582976388135.0,514794239140.5,478777935060.9,433813446506.9,418966443227.5,407061764085.1,387331200656.8,408019487884.6,454288751230.0,443983480569.0,418064724285.4,403333703240.1,394996850231.7,396023124478.0,383555720197.1,354252238414.7,365499372650.3,363297137243.7,338091869998.9,316775534534.0,312236362236.1,313247444013.0,309989049086.1,312290285185.9,315388193330.1,317161565046.9,285956361601.2,255983041430.6,233889002765.1,211581162149.7,169026299967.5,143744273774.3,123704138827.5,107722595766.4,90798662913.3,70412863928.5,55423558272.5,42139528283.5,33774520742.0,25484944335.2,20181935222.7,16419214258.8,14268468107.4,,,,,,,,,,
LAO,Lao PDR,,10328741033.6,9314722050.8,8418768345.1,7312583798.3,6689454764.3,5601152133.1,5123773858.9,4520793069.4,4256917683.6,3750800848.1,3459730965.0,3202052020.1,2931633422.0,2571601288.6,2353802451.9,2349806560.0,2061274054.4,2719379724.0,2534508398.5,2474063899.6,2494122894.2,2396827094.3,2259817179.4,2191109722.0,2094644420.2,2024355461.7,1950490734.5,1889064115.3,1852016893.5,1759968296.8,1465790130.6,1325336561.6,1154250431.2,859783917.0,608908114.9,508037045.6,438467814.9,415775368.6,376431076.0,335385373.7,297544151.0,247712996.4,172586331.7,107985559.6,44176274.0,41004961.1,32604009.3,18801080.7,15632737.7,8345623.6,,,,,,,,,,
LBN,Lebanon,,33324947149.1,33076814357.4,29990761049.8,27708333933.3,26729307830.8,25236793636.2,25730424385.9,24245506166.0,20788270978.7,20389466787.9,20763571102.8,20739178375.6,21023942067.0,20199542113.4,18934718593.8,18457551113.6,15723240474.0,14406084516.0,9402663009.2,6969321294.1,5614052305.7,4227893751.1,2413689592.1,1956242540.3,1560250757.3,786751455.1,376095610.2,308621251.9,344612861.1,366014620.6,362065049.8,379848561.5,410917779.4,407364766.1,406132309.7,407164195.4,435888723.7,346971305.3,286064003.1,216292638.8,107528704.6,51818036.2,39177398.0,39041939.1,45669452.4,49284347.8,56393232.9,61559341.9,68095825.7,64232860.3,,,,,,,,,,
LBR,Liberia,,912553624.2,783832671.7,659670285.4,528307217.0,435995853.6,296254199.5,229486533.2,208489510.0,188027802.3,183097755.4,673132514.6,865013548.8,1033536126.8,1203810565.4,1179082483.1,1241736615.0,1191435729.1,1128736889.3,1077185621.2,1104031293.4,1052901037.4,1083278032.3,1052136511.5,1101190589.7,1152814613.6,1139707246.0,1104206306.8,1083722780.8,1108948663.5,1118503166.8,1066009673.5,1078372626.3,1115710048.5,988138788.3,884873640.2,773837283.9,714032018.6,628246390.8,598486502.7,515491501.0,454020390.6,338057434.0,263219520.6,208478565.3,178637864.8,161779768.8,158992681.9,159304339.0,160385461.5,157909998.9,,,,,,,,,,
LBY,Libya,,,,,,,,,,,,,,,,,,,,,,,,,,,,,,,,,,,,,,,,,,,,,,,,,,,,,,,,,,,,,
LCA,St. Lucia,,542261526.3,499799992.6,489772714.2,430886296.8,420000827.6,371270197.4,358226225.3,342871108.6,310090168.2,321276160.2,314912574.4,316160852.9,300365618.6,250945398.0,238614085.6,245384066.2,222656698.3,196801974.2,151937447.3,153491401.4,128995799.1,126826352.2,119941378.9,121381045.9,111335118.8,103587527.8,96488543.2,89826226.6,76135009.7,72146247.1,61576723.3,52778862.1,41918176.0,28363855.3,23113174.2,20290497.8,18907707.6,17122202.7,15516307.7,,,,,,,,,,,,,,,,,,,,,
LCN,Latin America & Caribbean,,,,,,,,,,,,,,,,,,,,,,,,,,,,,,,,,,,,,,,,,,,,,,,,,,,,,,,,,,,,,
LDC,Least developed countries: UN classification,,,,,,,,,,,,,,,,,,,,,,,,,,,,,,,,,,,,,,,,,,,,,,,,,,,,,,,,,,,,,
LIC,Low income,,117721550125.6,112376946174.4,108360624511.9,98484486327.1,94404920206.1,90007183479.0,83717980777.3,74639313539.1,70545725403.9,67600565503.5,71138602523.5,68631565206.6,66602072286.1,61280916699.2,75989024783.3,89984113487.2,89202537771.5,82098674190.8,76235441519.8,79155003013.7,79285019884.1,87192127970.8,81573674122.4,85141601374.6,85698811325.7,83249208813.2,79745227209.7,77769419813.5,77206324028.5,73691015259.7,68883075135.5,66306664316.1,64648718705.6,53380492149.9,45480781532.4,37569830320.4,35565835189.6,30573877747.6,26011088977.8,21205532862.6,17506511211.8,14847288055.0,12452110277.4,9407616617.6,8095718994.0,6732662192.2,4893038278.7,3921809205.5,3387805241.7,2916859079.3,,,,,,,,,,
LIE,Liechtenstein,,,,,,,,,,,,,,,,,,,,,,,,,,,,,,,,,,,,,,,,,,,,,,,,,,,,,,,,,,,,,
LKA,Sri Lanka,,36963689568.7,34344575920.6,32624294605.6,30114439856.4,27453006848.8,25824597374.6,25427787338.8,22954135854.1,18681699405.2,16429773255.2,13642665980.7,12584314271.1,11821805969.3,10318074777.2,9657517198.8,9869538944.5,9201059007.8,8443996799.0,7527386635.3,7944556777.5,8445457055.7,8074185701.5,7066083723.1,7120746962.7,7175325335.3,6722552908.3,6030397849.8,5662390678.9,5671829056.9,4951006968.2,4287172379.2,4156102419.1,4087623484.9,3459288316.2,2843262124.3,2354457237.5,2121310705.1,1871325568.6,1518738569.1,1234979550.4,1023588662.5,976186097.5,788830267.8,703581097.3,599854849.6,590243085.5,487196856.5,424363257.3,396488467.8,319158442.4,,,,,,,,,,
LMC,Lower middle income,,925629409664.4,856314688278.2,802415354503.8,694223475622.4,666399462713.4,627300970847.2,573207008775.5,534074317523.5,497427305150.2,467243150448.3,428816168519.4,392079374270.3,370039739855.1,338250855711.8,372110728743.6,415036744126.8,403970390637.1,394724282963.3,372982141998.9,389319875969.7,410240690027.8,406782875227.6,383423305344.5,399099471729.7,411385071435.0,402943153638.2,376152006376.6,359588005277.5,358027324269.3,348271785579.9,324428497760.1,286322913774.6,273456352569.6,225008872556.1,186007862204.8,158255839889.3,151698307513.7,137922362543.8,122640647114.1,112778507908.3,96925800427.6,83097297165.9,65690989714.2,51288458714.7,43625280442.0,35577048452.6,31088407832.3,26002437855.5,23729976018.8,20241091828.6,,,,,,,,,,
LMY,Low & middle income,,3099428066732.4,2902119176366.1,2759942012542.2,2447739403030.6,2304632503922.4,2295689167625.0,2142615650482.9,1941158511802.2,1735035410342.9,1598631299470.5,1465144563259.6,1365053326475.4,1312980292072.3,1203061084138.0,1240442272435.6,1366890783616.3,1327763956799.1,1273315176420.8,1221101950864.0,1245660470782.1,1296412712241.6,1286123594982.9,1209802695177.8,1221422443646.3,1231310467728.8,1179442906963.2,1086294245051.8,995670499913.8,975504776808.3,942297128622.2,889025764206.9,836806116486.6,813853341241.2,685651932539.8,584514153376.3,505602646772.6,459428961115.5,393138195628.8,343349850865.3,307555226848.9,255308612050.1,214390539727.2,168726906914.9,132988454985.3,108368910790.2,87365695502.9,71313633726.5,58064656838.0,50244879974.3,42566065846.2,,,,,,,,,,
LSO,Lesotho,,856227657.3,809325288.6,827514620.8,774778246.8,773754675.1,769308842.5,771867367.2,761994993.2,729316552.7,709244233.0,687842663.0,662638034.8,642178316.8,613480931.5,618932603.0,721581111.8,672639206.7,628484057.2,578455438.7,656701600.0,660959844.0,660544473.9,641446143.6,663464787.8,641975050.1,577434035.3,503168170.6,464727278.4,425748661.1,377728610.8,316001124.8,276038503.8,252405370.7,190518391.4,167407063.5,129789109.4,119705054.1,113680337.7,72720894.4,57734330.5,48402707.6,30649014.4,23939808.3,16201998.2,14085560.5,10154661.0,8260480.3,9486440.3,8628403.5,8122200.0,,,,,,,,,,
LTE,Late-demographic dividend,,,,,,,,,,,,,,,,,,,,,,,,,,,,,,,,,,,,,,,,,,,,,,,,,,,,,,,,,,,,,
LTU,Lithuania,,,,,,,,,,,,,,,,,,,,,,,,,,,,,,,,,,,,,,,,,,,,,,,,,,,,,,,,,,,,,
LUX,Luxembourg,,,,,,,,,,,,,,,,,,,,,,,,,,,,,,,,,,,,,,,,,,,,,,,,,,,,,,,,,,,,,
LVA,Latvia,,,,,,,,,,,,,,,,,,,,,,,,,,,,,,,,,,,,,,,,,,,,,,,,,,,,,,,,,,,,,
MAC,"Macao SAR, China",,,,,,,,,,,,,,,,,,,,,,,,,,,,,,,,,,,,,,,,,,,,,,,,,,,,,,,,,,,,,
MAF,St. Martin (French part),,,,,,,,,,,,,,,,,,,,,,,,,,,,,,,,,,,,,,,,,,,,,,,,,,,,,,,,,,,,,
MAR,Morocco,,36465652709.1,33387229189.4,34712427593.2,31459856774.0,31130583885.7,30144641171.5,28315996040.4,25148750119.2,22435856476.4,21095434450.0,19280765146.0,16585856009.3,15703080099.6,13547999400.4,12448968515.0,14169198050.6,14464039516.2,14372364907.5,15350630431.1,17243286058.9,18820511713.9,20697447885.0,20388462411.5,22405525190.8,23204230964.6,22359605254.2,21336047130.7,21657697857.3,21430097611.1,23669476892.2,20902526263.5,19592169326.0,18843511584.0,15860269733.7,13379351562.2,11520256211.7,10607903168.8,10103417296.0,8990053289.6,8337547338.5,7067039187.2,5963179652.2,4740940572.8,2919911158.6,2442528434.8,1357084493.0,1157683146.5,1072907621.7,1028918127.3,871385671.3,,,,,,,,,,
MCO,Monaco,,,,,,,,,,,,,,,,,,,,,,,,,,,,,,,,,,,,,,,,,,,,,,,,,,,,,,,,,,,,,
MDA,Moldova,,1464082277.6,1449644230.1,1441735823.2,1211736499.4,1071675442.7,1026823937.3,996911560.7,964613223.2,864843806.9,838941268.8,808534719.9,804774617.4,782990011.7,743840768.1,697803361.4,754269435.5,848318775.8,825908786.1,793615492.9,856004779.0,722527291.2,801424027.2,801381629.0,554491372.3,449533134.3,326403777.7,190246889.3,38504010.0,,,,,,,,,,,,,,,,,,,,,,,,,,,,,,,,
MDG,Madagascar,,3120025731.7,2902039562.8,2735457793.3,2465455856.9,2508804251.0,2404405692.2,2330186491.6,2249052566.1,2151223846.0,2038908457.9,1894940911.6,1770131495.2,1459878075.7,1248486054.6,3186621222.9,3493184535.2,4622290060.8,4136688764.3,3793455599.6,4295312307.0,4368855719.6,4106358238.0,3875043020.9,3551968305.1,3705661331.8,3536625747.1,3316197152.1,3468960417.1,3518797841.2,3334715145.8,3142470382.8,3333661420.3,3303093651.1,2638490570.4,2226835961.4,1862009333.8,1695675802.2,1662581882.8,1404550741.3,917719041.1,582612686.8,279245038.8,716425342.6,173219589.0,774170433.7,746515764.2,504986847.3,510135605.2,488437476.9,485146240.2,,,,,,,,,,
MDV,Maldives,,2228151048.2,2003889258.5,1234062844.1,911809213.8,685301024.0,747035126.1,874666071.8,720037449.5,675196037.6,627808485.7,542716127.9,469894852.8,416436276.1,354275657.0,299765075.1,306798432.5,258500425.4,222462946.8,180672875.5,184655269.7,194051953.3,183399922.6,164332186.7,163535228.4,151916795.9,122524561.1,109329106.8,90518973.9,78042507.1,63964852.9,54400308.7,59359561.4,61836720.0,58684985.3,49065918.7,49809472.5,48220826.7,42069558.1,36885616.1,24763273.8,6798706.2,3873272.5,,,,,,,,,,,,,,,,,,
MEA,Middle East & North Africa,,,,,,,,,,,,,,,,,,,,,,,,,,,,,,,,,,,,,,,,,,,,,,,,,,,,,,,,,,,,,
MEX,Mexico,,303816768114.3,295156942327.8,286640466399.9,266771736308.8,259358343960.4,247453037063.7,220033002080.1,195901054291.6,164302056445.5,145925213054.5,118878063672.2,128375103765.0,120831583235.3,105465177068.6,115549406066.0,112130505704.2,109049864305.1,101233617972.3,96004743007.9,82767381456.6,88749599558.9,88036310271.1,84441068834.0,94125446238.2,95256990758.2,79633406733.9,75269369903.8,71295297584.2,77976942269.0,76136183815.9,76292660739.6,80785043247.6,84541747215.0,76019956236.3,72898850490.8,69912756283.5,66951109474.3,51744684425.2,43229639827.2,34111370375.6,29214530166.2,25705578490.1,20896484254.5,15978143670.6,11564611868.8,8303444375.1,5710332065.7,4049804526.6,3615050073.8,3325271963.6,,,,,,,,,,
MHL,Marshall Islands,,,,,,,,,,,,,,,,,,,,,,,,,,,,,,,,,,,,,,,,,,,,,,,,,,,,,,,,,,,,,
MIC,Middle income,,2981706516606.8,2789742230191.7,2651581388030.3,2349254916703.5,2210227583716.3,2205681984146.0,2058897669705.6,1866519198263.1,1664489684939.0,1531030733967.0,1394005960736.1,1296421761268.8,1246378219786.2,1141780167438.8,1164453247652.3,1276906670129.1,1238561419027.6,1191216502230.0,1144866509344.2,1166505467768.4,1217127692357.5,1198931467012.1,1128229021055.4,1136280842271.7,1145611656403.1,1096193698150.0,1006549017842.1,917901080100.3,898298452779.8,868606113362.5,820142689071.4,770499452170.5,749204622535.6,632271440389.9,539033371843.9,468032816452.2,423863125925.9,362564317881.2,317338761887.5,286349693986.3,237802100838.3,199543251672.2,156274796637.5,123580838367.7,100273191796.2,80633033310.7,66420595447.8,54142847632.5,46857074732.6,39649206766.9,,,,,,,,,,
MKD,North Macedonia,,4163330025.7,4060968437.3,3828582601.3,3472841776.7,3108642761.5,3139532270.3,2572480814.9,2270001399.2,2109512832.0,1880310446.1,1873637066.3,1574480712.5,1519994336.7,1556113704.5,1636785736.9,1555668511.2,1449192043.7,1276060580.8,1169540802.0,1205756623.6,1146375326.1,1063147107.1,941735543.6,856286502.7,788397572.7,708944120.8,703879383.4,,,,,,,,,,,,,,,,,,,,,,,,,,,,,,,,,
MLI,Mali,,4635514898.3,4122767441.2,3866446983.0,3420316584.2,3354187600.3,3136720323.3,3099084464.5,2788738257.6,2504608418.0,2268868763.1,2001586178.8,1984057889.9,1806111450.2,1541556788.0,3036255397.7,3069550864.5,2848303025.9,2461143317.3,2590625034.0,2671034703.4,2813644359.3,2833131127.9,2701973450.7,2762762386.2,2739370160.4,2545423872.4,2786247706.1,2778499398.9,2463043978.3,2336889223.9,2026283890.7,1893660627.9,1888960415.1,1565599021.6,1289047385.5,1085482927.2,898773588.3,798893722.7,725099397.2,664340367.6,513647754.1,520235734.9,437778487.7,357518488.5,342975095.1,335715133.7,290291921.3,256934045.2,260597611.6,237562629.4,,,,,,,,,,
MLT,Malta,,,,,,,,,,,,,,,,,,,,,,,,,,,,,,,,,,,,,,,,,,,,,,,,,,,,,,,,,,,,,
MMR,Myanmar,,10680656638.4,10223819256.0,10283984828.3,9638255262.3,9787044214.3,9797907384.1,9789685068.7,9939229505.0,9507102301.6,8607123664.2,8023307273.4,7832738750.0,7073681972.0,6609728224.9,6327607634.6,6790625923.4,6596577951.1,6003877084.1,5524174678.9,5899317565.1,5859024866.1,5631433056.1,5496122212.3,5432488375.0,5899979667.3,6075318321.2,5502244122.5,5211488745.2,5219123188.8,5111271144.2,4625966019.2,4779484831.3,4728837830.6,3722840777.7,2974937014.5,2376244400.3,2308061950.3,2114178379.1,1842400531.1,1571250530.0,1265967490.6,892223059.0,521809561.0,347786335.3,325724929.3,313867248.2,268064119.2,212223688.2,174392002.9,147210999.5,,,,,,,,,,
MNA,Middle East & North Africa (excluding high income),,214755406571.5,199701266833.9,182436302172.6,157682684260.5,145784578342.0,135040985382.6,139186252786.3,121884163081.7,112883757602.0,114424034181.6,113561319448.7,111257969467.6,116540024653.2,108776728274.2,116020155330.3,135914812040.9,131021171145.7,122293666255.5,112740085176.7,112647999866.6,119646846945.6,127214544507.4,122419511903.7,135256430728.5,140336499992.1,133739589203.6,116576330298.3,112976499484.4,115117542783.2,113979967623.3,117379475689.3,115531439341.6,110518276472.9,94003836387.9,81724937193.3,70660935795.4,69093552832.5,63441909875.2,57901744217.0,53687294715.6,41345258438.6,34569186613.3,25350462095.0,16769629947.6,13197098205.3,8326477202.2,7286201259.5,5443519747.6,4968601848.6,4158833918.3,,,,,,,,,,
MNE,Montenegro,,3725952489.8,3442774837.6,2978416053.1,2428186325.9,2555915386.1,2360985926.8,2424263293.7,2180726889.7,1801885339.4,1348824753.4,1094339673.6,851235079.2,843838165.2,828618658.1,,,,,,,,,,,,,,,,,,,,,,,,,,,,,,,,,,,,,,,,,,,,,,
MNG,Mongolia,,8147172879.1,7900446940.0,7494392401.7,5122303309.9,3993052489.9,3862739153.3,3828264540.8,3425579315.7,1828635457.7,1782406780.6,1819333677.9,1659204568.1,1578104179.0,1360987608.5,1266678157.0,1306636603.2,1137497398.1,949001651.0,823726697.7,833353538.1,841064136.8,650039275.1,533327114.7,485750714.2,472063077.8,405648861.2,343205066.5,276699674.0,,,,,,,,,,,,,,,,,,,,,,,,,,,,,,,,
MNP,Northern Mariana Islands,,,,,,,,,,,,,,,,,,,,,,,,,,,,,,,,,,,,,,,,,,,,,,,,,,,,,,,,,,,,,
MOZ,Mozambique,,10726036471.0,10811441240.6,10710041807.5,9931080261.8,9757014060.1,9432127378.9,8209891481.9,5459500111.2,4594988773.7,3499488909.4,3399102643.1,2874306443.7,2467514747.7,2144954311.4,3459319750.9,3477877003.3,3230091062.1,2937597131.6,2605491330.7,4757393775.7,4895460655.6,6064160669.3,5240016463.2,5397152856.3,5251377666.8,5253907158.1,4865151434.0,4722536364.5,4350774211.8,4195914051.6,3812778539.8,3723564873.0,3729734188.3,3147135120.0,2652972842.3,1234137252.3,,,,,,,,,,,,,,,,,,,,,,,,
MRT,Mauritania,,4042878863.6,3952275851.7,4001766332.5,3865182891.7,3711550084.1,3296507270.4,3246739082.7,3021697581.9,2565501495.0,2325934476.3,1988972645.7,1670429330.6,1437453151.0,1315760619.5,2030089217.3,2031854742.4,2024264991.2,1894921819.4,1891629255.5,1984572800.6,2103592556.6,2048537508.5,2075282046.4,2166323794.8,2124121381.8,2022978858.6,1933563165.3,1838924180.5,1833514030.6,1803087510.7,1736141782.4,1799480662.2,1820245416.6,1573225525.5,1300434592.9,1144287967.2,1103824567.8,968618482.6,802919866.5,709847380.0,618302407.6,588190125.3,458945927.5,392726191.3,188027357.6,167681729.4,104930493.6,55798535.3,38914520.6,26315139.8,,,,,,,,,,
MUS,Mauritius,,,,,,,,,,,,,,,,,,,,,,,,,,,,,,,,,,,,,,,,,,,,,,,,,,,,,,,,,,,,,
MWI,Malawi,,2026148814.7,1926246505.6,1789808893.5,1507045929.0,1453874495.7,1372504988.3,1250034865.5,1026710306.8,928826477.4,729526596.4,846503041.7,769184300.1,759604893.3,764622507.1,3061965864.8,3295781044.3,2935043205.8,2670547001.1,2469102630.7,2544560519.1,2587028719.3,2304766537.2,2096263584.6,2092229170.7,2079298872.6,1896501172.0,1729547999.6,1567992171.6,1517626167.7,1382418023.0,1258113485.0,1200339237.6,1155266046.5,943952431.6,794721538.3,712626479.8,702440230.8,681943194.2,666886666.1,634230067.1,504313120.4,504387245.4,378462944.7,305009839.3,267372283.5,242448768.9,215019020.3,175657679.9,152207137.9,135209089.9,,,,,,,,,,
MYS,Malaysia,,,,,,,,,,,,,,,,,,,,,,,,,,,,,,,,,,,,,,,,,,,,,,,,,,,,,,,,,,,,,
NAC,North America,,,,,,,,,,,,,,,,,,,,,,,,,,,,,,,,,,,,,,,,,,,,,,,,,,,,,,,,,,,,,
NAM,Namibia,,,,,,,,,,,,,,,,,,,,,,,,,,,,,,,,,,,,,,,,,,,,,,,,,,,,,,,,,,,,,
NCL,New Caledonia,,,,,,,,,,,,,,,,,,,,,,,,,,,,,,,,,,,,,,,,,,,,,,,,,,,,,,,,,,,,,
NER,Niger,,3167198213.4,2808396892.3,2687685635.7,2242116073.7,1968757650.6,1743110874.1,1754643755.3,1540824782.3,1913298537.3,1212325190.6,962658333.9,783524485.3,753728272.7,653731696.8,1748018742.8,1777187373.5,1920458071.8,1641085484.5,1444770144.8,1494559616.8,1486572530.1,1472448248.4,1340540168.1,1347887135.8,1346934579.4,1285173784.8,1242302754.7,1197929747.6,1169585911.8,1258134316.1,1077356739.3,1244633675.3,1198585840.3,990209528.1,847789261.8,696893813.3,678871004.6,588971525.2,592794626.4,385611049.9,258581814.7,193131219.7,121167957.1,132736740.7,114173866.3,93672792.1,64940664.6,54794401.3,41560136.9,31677128.3,,,,,,,,,,
NGA,Nigeria,,27531133505.9,25231717336.9,18822110580.9,11316620667.2,10677039504.7,9666155711.7,8285019444.2,6679328666.1,5935943882.2,4685520492.8,4221325237.9,3901853760.8,3614472487.7,3828991596.5,20248210300.9,32550279982.8,31295132578.8,28080396502.5,29238354833.7,30042091491.4,22382477430.4,23464259240.4,22643915527.0,25438639623.9,28141935065.9,27954510357.0,26420641442.4,26477791994.5,32324971957.2,31544595767.5,29251220689.7,27539534849.3,26904744280.7,17934185195.5,12244907755.9,10638890260.9,11218087542.1,8144630530.9,5671268871.1,4288141118.3,3252582441.2,2308697688.6,855287005.0,803231872.3,1052430425.1,1180893141.8,1116809984.0,646812520.7,543111087.6,452077689.4,,,,,,,,,,
NIC,Nicaragua,,5413631750.6,5093984130.3,4695841337.6,4205306891.1,3949112355.2,3570930532.6,3301696722.4,3061949066.5,2853929058.0,2691261419.5,2513792919.9,2259376618.2,2179638324.9,3248317165.9,3950765412.7,4044247207.8,5805945348.2,5502699253.2,5389744882.3,5435148669.3,5279296363.8,5563993061.9,5292081113.1,5230018045.2,8636720671.2,9900275763.4,9528863340.2,9398780554.8,9250848239.3,8381199532.8,7691400443.5,7054510436.7,6489745420.8,5867788153.7,5027564616.1,4213771638.8,3507558039.2,2596710156.6,2189997551.2,1751641713.8,1165274369.9,1022390504.5,924551129.6,742141106.6,664122383.9,519148139.5,378435445.6,272375840.6,224985089.6,186870748.6,,,,,,,,,,
NLD,Netherlands,,,,,,,,,,,,,,,,,,,,,,,,,,,,,,,,,,,,,,,,,,,,,,,,,,,,,,,,,,,,,
NOR,Norway,,,,,,,,,,,,,,,,,,,,,,,,,,,,,,,,,,,,,,,,,,,,,,,,,,,,,,,,,,,,,
NPL,Nepal,,5844830101.6,4973777339.2,4299493969.1,3665309927.1,3543244172.9,3439766292.0,3574449233.0,3493123048.1,3528236477.6,3507426942.0,3550285708.6,3550354598.6,3466533426.2,3266633722.4,3110051085.3,3295659005.1,3134793661.6,2942765079.9,2668832039.1,2822541727.5,2956457043.0,2613453838.0,2355269157.4,2333036206.4,2338651373.2,2202634316.3,1933201769.9,1748987469.6,1701299052.6,1558496191.1,1282188352.3,1087019472.1,921856302.9,698896515.2,545006556.7,430747467.0,348978333.7,283277144.4,218602448.6,155877038.8,109903934.3,79397327.2,70256116.5,44390615.9,34017048.9,27553349.5,20103243.4,12304770.9,9157279.6,3800810.8,,,,,,,,,,
NRU,Nauru,,,,,,,,,,,,,,,,,,,,,,,,,,,,,,,,,,,,,,,,,,,,,,,,,,,,,,,,,,,,,
NZL,New Zealand,,,,,,,,,,,,,,,,,,,,,,,,,,,,,,,,,,,,,,,,,,,,,,,,,,,,,,,,,,,,,
OED,OECD members,,,,,,,,,,,,,,,,,,,,,,,,,,,,,,,,,,,,,,,,,,,,,,,,,,,,,,,,,,,,,
OMN,Oman,,,,,,,,,,,,,,,,,,,,,,,,,,,,,,,,,,,,,,,,,,,,,,,,,,,,,,,,,,,,,
OSS,Other small states,,,,,,,,,,,,,,,,,,,,,,,,,,,,,,,,,,,,,,,,,,,,,,,,,,,,,,,,,,,,,
PAK,Pakistan,,71112760813.3,67261349887.4,61067680702.4,52560766371.6,49119208110.2,46977443878.4,43989657546.9,45243775319.2,45377406909.7,43699832144.2,42858624936.5,40631113153.2,37205662993.5,33457687566.1,30308003987.6,31613062351.1,31418938048.0,28145270404.2,26596426250.0,27264229058.2,28204037610.3,26189115741.3,23995251189.8,23643990768.8,23799913199.0,22717509551.4,20426736707.8,18564405964.9,17736575801.5,16505602211.0,14506812865.0,13989062272.8,13540047002.4,11867922327.4,10673982401.1,9829416271.2,9582968381.9,9526338245.8,8629261186.9,8501987896.9,7889356377.8,7457197400.7,6757366329.0,6011461004.0,5109254894.9,4645152329.1,4247181944.2,3810911744.3,3620608722.3,3252362576.0,,,,,,,,,,
PAN,Panama,,,,,,,,,,,,,,,,,,,,,,,,,,,,,,,,,,,,,,,,,,,,,,,,,,,,,,,,,,,,,
PER,Peru,,18606069830.2,18144898363.1,18977870196.9,19733463383.9,19410853912.4,15904859703.8,17220534275.0,19967847146.1,20142466709.6,20008817952.0,20787578840.9,19414502174.0,19853668475.2,22186694503.7,22541826670.1,24715384383.7,23072236563.2,20980055436.7,18951186668.2,19291383535.1,19551311017.9,19385898998.9,19286886618.6,20293339924.0,19009204832.0,17771566795.7,16484210284.9,15685273915.8,15558480333.8,13785716714.8,12771891877.8,12484117065.6,12787514731.6,11158179756.7,9982045715.2,9317318827.6,8475004332.4,7126637672.7,6204365265.7,6366130301.3,6165021897.6,5603290267.8,4884188041.0,3815646512.8,3166823225.1,2360537914.0,1573984620.7,1175623534.5,1002888441.8,944513044.7,,,,,,,,,,
PHL,Philippines,,41679086011.8,38343884970.6,36499706289.5,35756653032.0,38860058281.0,38949899405.4,38591966537.8,43049622111.3,44632768109.6,45094264634.7,42196216475.0,39258328427.9,38137065922.8,36975568546.5,35364046102.1,35981099552.1,36146693121.5,32318691976.5,29211074952.4,33744462194.4,34770550662.0,29172930565.3,26394771419.3,27071980272.7,28525352553.9,29913015321.6,27688153416.6,25832224809.8,25101093515.0,24039981965.9,22333391361.2,22362169071.7,22893702286.6,19262582848.2,13711548307.4,11300326735.7,10570755283.1,8859144574.9,7470866988.4,6362604146.9,5082457327.1,4160949919.1,3023098819.9,2220004845.0,1459688935.6,1132130925.0,895171308.0,875558407.1,700330684.8,624977768.6,,,,,,,,,,
PLW,Palau,,,,,,,,,,,,,,,,,,,,,,,,,,,,,,,,,,,,,,,,,,,,,,,,,,,,,,,,,,,,,
PNG,Papua New Guinea,,4308969834.9,3406718403.0,2302737842.6,1919803371.6,1501287486.8,1369080921.0,1255657506.7,1130249494.2,1069331867.6,1042418762.4,1044993386.9,1067393920.4,1128918817.9,1210406914.6,1264108478.6,1445092910.8,1504533055.2,1438776844.2,1370217446.7,1454025059.6,1466670700.2,1429959770.7,1338374099.0,1544859850.9,1667657427.3,1732091561.0,1616129865.4,1592081276.1,1631122800.5,1523041794.5,1324714440.0,1252865295.3,1429579935.1,1233049236.5,1069413289.5,960342423.5,912996285.5,721135685.5,609474273.5,485470820.4,393269783.0,368038655.0,341504946.0,285983938.4,275036560.4,244321531.0,219578942.0,130425775.0,89376568.0,36175480.0,,,,,,,,,,
POL,Poland,,,,,,,,,,,,,,,,,,,,,,,,,,,,,,,,,,,,,,,,,,,,,,,,,,,,,,,,,,,,,
PRE,Pre-demographic dividend,,,,,,,,,,,,,,,,,,,,,,,,,,,,,,,,,,,,,,,,,,,,,,,,,,,,,,,,,,,,,
PRI,Puerto Rico,,,,,,,,,,,,,,,,,,,,,,,,,,,,,,,,,,,,,,,,,,,,,,,,,,,,,,,,,,,,,
PRK,"Korea, Dem. People's Rep.",,,,,,,,,,,,,,,,,,,,,,,,,,,,,,,,,,,,,,,,,,,,,,,,,,,,,,,,,,,,,
PRT,Portugal,,,,,,,,,,,,,,,,,,,,,,,,,,,,,,,,,,,,,,,,,,,,,,,,,,,,,,,,,,,,,
PRY,Paraguay,,7182823683.8,6401972046.8,5608959766.2,4828422638.6,4023543555.8,3722001227.4,2703892874.9,2267328005.1,2328912251.5,2390048037.7,2269431814.1,2272097943.7,2205199202.7,2243324811.8,2290391963.8,2465545460.4,2233714652.8,2083716240.4,2008849161.3,2089404262.7,2105747566.5,1623667579.3,1499673437.7,1453638377.6,1496360222.4,1407125497.9,1335165819.4,1421854462.6,1747517956.1,1784061995.6,2171525753.9,2174806876.3,2313489741.3,1912179064.5,1624653823.7,1341512783.8,1240101078.3,1036537884.9,808079323.7,731176118.9,628484212.7,553021233.8,438425197.6,330480615.6,271806492.9,234579890.6,208169185.3,184883632.8,162143126.8,144131808.1,,,,,,,,,,
PSE,West Bank and Gaza,,,,,,,,,,,,,,,,,,,,,,,,,,,,,,,,,,,,,,,,,,,,,,,,,,,,,,,,,,,,,
PSS,Pacific island small states,,,,,,,,,,,,,,,,,,,,,,,,,,,,,,,,,,,,,,,,,,,,,,,,,,,,,,,,,,,,,
PST,Post-demographic dividend,,,,,,,,,,,,,,,,,,,,,,,,,,,,,,,,,,,,,,,,,,,,,,,,,,,,,,,,,,,,,
PYF,French Polynesia,,,,,,,,,,,,,,,,,,,,,,,,,,,,,,,,,,,,,,,,,,,,,,,,,,,,,,,,,,,,,
QAT,Qatar,,,,,,,,,,,,,,,,,,,,,,,,,,,,,,,,,,,,,,,,,,,,,,,,,,,,,,,,,,,,,
ROU,Romania,,,,,,,,,,,,,,,,,,,,,,,,,,,,,,,,,,,,,,,,,,,,,,,,,,,,,,,,,,,,,
RUS,Russian Federation,,194170858345.1,177149818233.7,220078777962.8,189423409008.2,194185224930.2,228372506844.7,273803162166.7,209994494112.2,195433855960.0,165630662825.3,145865260317.6,125254489467.1,125218443689.2,97195350768.4,76005809710.6,92130795237.9,84962852957.8,79421946677.8,85292632574.9,90270420402.2,118812116899.6,119242285204.6,106937580211.9,102391857383.0,102097010119.0,108301652541.7,101701066418.2,64571299242.1,,,,,,,,,,,,,,,,,,,,,,,,,,,,,,,,
RWA,Rwanda,,3907921420.7,3240645978.5,2829120341.2,2353279769.2,2057333327.7,1755437489.4,1552711619.0,1045226817.8,971491451.7,758993086.0,715542829.0,649674996.9,565899641.2,389507917.6,1414509476.4,1541863562.2,1415755026.0,1304721406.7,1162947671.5,1147742237.4,1163328201.9,1121975246.5,995660649.0,986752643.1,972429830.8,907657059.5,837648329.9,789909175.8,747084402.4,664490874.4,577360917.9,608334320.4,558859157.3,415594601.6,328551706.6,242601140.3,213308825.4,185513019.1,164133434.7,150269346.7,127485921.7,109802922.0,78490587.8,47672064.8,24074478.2,12310096.7,7914015.3,3384478.7,1998751.4,1948977.4,,,,,,,,,,
SAS,South Asia,,353543080366.3,329743316461.5,317691028151.4,270396834470.7,271411254764.8,257284354134.2,223031129465.0,219057333627.6,201477275365.3,188863542732.1,169944794380.1,156490727846.2,144927002304.0,127490483649.2,116876148535.7,129880038072.7,126353302447.3,138518478256.0,130796782821.5,134774342493.2,142886869216.6,137615432317.6,126694083842.7,126511483900.4,128362165027.4,129821048878.1,123068691073.5,114278318194.7,110114189952.6,105488721907.2,93355459310.7,77675747792.2,69609762664.9,57527248845.8,48533262309.8,41073591806.1,38312833618.5,36004942840.8,32411553127.0,31290494487.5,28800517582.2,26586068516.7,24300558028.0,21883821862.9,19603503768.0,17816314141.4,15619078280.6,13972412004.3,12981475751.4,11652871948.6,,,,,,,,,,
SAU,Saudi Arabia,,,,,,,,,,,,,,,,,,,,,,,,,,,,,,,,,,,,,,,,,,,,,,,,,,,,,,,,,,,,,
SDN,Sudan,,16309393169.8,15578792629.7,15805616556.1,15505992028.3,15772384101.5,15936831360.8,16432678958.8,15725629290.3,15125488613.4,14480618949.1,13752124950.3,13163276096.8,12791150908.0,11954300618.1,11247850396.5,11705922268.3,11220512828.6,10661132379.6,10065073965.1,10150630781.6,8853335976.2,9225862495.3,8998225165.4,9369226115.9,9779426422.4,9399864856.2,8993766112.5,8983624032.7,9220052624.1,9155214430.9,8468902717.8,8002750772.2,8043181154.9,7121517690.9,6601653519.3,6190998606.3,5837586547.9,5424315438.2,4505308004.0,3822271061.0,3261281358.0,2407749701.2,2038643520.4,1657146802.7,1250817492.3,895752846.1,453406911.6,360568728.3,326481432.0,293685880.5,,,,,,,,,,
SEN,Senegal,,12842049088.0,11207833365.7,8366534947.1,6150794349.1,5332062510.1,4964982313.8,4512434721.4,4182107169.2,3613631650.4,3149585274.4,2954182426.0,2371873276.7,1987824842.1,1638729007.5,3501363514.4,3517603925.1,3916226594.9,3506164954.6,3169049657.5,3208177847.7,3373754805.2,3509914701.6,3245656423.2,3239400497.6,3265773838.4,3088335523.5,3087815502.1,3011066869.3,2898466750.2,2958388165.9,2668634610.4,3260428524.8,3330743463.6,2629169041.5,2055190554.9,1685473226.5,1639277983.0,1424460230.1,1234472640.6,1105152146.2,819350320.8,668772295.1,473593827.8,364154052.1,302093756.8,248327437.3,181649003.3,138329620.4,123899696.9,114452948.4,,,,,,,,,,
SGP,Singapore,,,,,,,,,,,,,,,,,,,,,,,,,,,,,,,,,,,,,,,,,,,,,,,,,,,,,,,,,,,,,
SLB,Solomon Islands,,98075090.5,96018483.9,96507010.8,86656714.9,81224574.3,89616008.4,101129463.3,110184094.1,117847734.8,125302082.6,132907824.1,137062371.6,148073930.6,150913558.0,144185283.7,155328417.4,151284949.8,150157267.4,130866811.7,120673425.9,125275188.8,113667750.4,96547423.9,100459955.3,100259029.8,98431415.7,94270684.3,92484282.8,98447017.8,103207041.7,98545263.0,100359335.7,93863729.7,70360063.1,53512894.0,36942054.2,27845140.3,22328049.2,19516124.0,17399965.0,12761784.0,9479143.5,,,,,,,,,,,,,,,,,,
SLE,Sierra Leone,,1118714461.8,1045877599.5,1030043933.2,967617177.0,948615874.2,912142070.3,901826480.4,839175757.1,741417733.1,660787286.1,604650365.2,544762725.9,481896710.7,1455640481.0,1566392389.6,1438981173.3,1363984760.7,1204988239.9,1063725494.4,1005769486.6,1065979298.6,1093404428.2,1023457099.1,1046732412.3,1057824258.4,1395555588.4,1320072326.9,1163095339.9,965196741.4,939818500.0,890134395.8,871661474.4,887452152.3,752853999.1,583294240.7,508217375.3,538522820.4,557781025.6,511033008.6,418537374.6,356775892.4,299634021.1,246191791.1,203681599.7,197427904.9,187443208.4,141780896.4,119385359.4,111055280.8,61400031.7,,,,,,,,,,
SLV,El Salvador,,9855521381.4,9505066089.4,9488774611.9,8710483051.1,8604025944.4,8691097364.6,7867735795.5,7884971954.4,7271621415.6,6838561802.3,6147030597.2,5791445789.5,5454044218.8,5388629361.6,5107176437.3,5566959311.5,5376026305.7,4788464945.1,3249665078.7,2746022618.6,2582513703.3,2379664088.5,2348187394.6,2271382297.5,2036678022.2,1965091035.4,1873081268.6,2228573713.4,2144560298.6,1992998224.6,1916353757.1,1788606027.0,1766605500.7,1682186455.8,1648555361.7,1576920479.6,1485292798.9,1066543072.7,793598996.3,584471116.0,495189596.7,418600248.5,356416218.0,349868637.0,274921283.2,234748806.8,145278601.1,134966791.7,117082206.7,110757537.2,,,,,,,,,,
SMR,San Marino,,,,,,,,,,,,,,,,,,,,,,,,,,,,,,,,,,,,,,,,,,,,,,,,,,,,,,,,,,,,,
SOM,Somalia,,2082283052.5,2084617182.3,1787410260.5,1743889509.0,1758825813.2,1799261700.8,1860267271.5,1870394470.8,1878598214.9,1878881910.7,1884632426.3,1878794620.3,1881616532.5,1828226916.9,1787647930.4,1855658122.5,1843263406.3,1766275103.4,1699347303.9,1730642615.5,1767143260.4,1787107181.5,1747703624.9,1809753061.9,1844918988.9,1825627342.9,1783361890.3,1783552799.2,1824372862.8,1802399790.6,1686325974.4,1640763898.9,1612581231.6,1465460616.8,1325801189.2,1199069745.4,1109990066.8,981157183.6,863100486.5,473554458.7,429329795.7,384994547.7,304455600.0,241165385.1,185008662.1,153727755.8,118816346.9,96232136.6,79710586.3,73220144.1,,,,,,,,,,
SRB,Serbia,,15343096627.3,15088184538.2,16421930633.2,16215156838.7,16275574178.6,16488953370.4,16624707322.2,13618148451.7,11272397121.8,9476829246.2,8834503880.3,8398688173.7,8469286790.6,7751571525.0,7755977633.6,8277013455.2,8276599913.3,7579221087.2,6177572862.1,6177948825.3,6194632044.4,6461110996.7,6108940562.4,6526619820.2,6788360630.2,6574425369.2,8231355848.4,11116854812.3,11640899242.3,12942266825.9,14110663456.7,14054574829.9,14274924805.7,12238393400.5,11151943529.2,8488374298.0,7238995431.6,5466465859.1,5204967920.0,4589370860.1,3680348108.6,3425723594.4,3104893399.9,2813851494.7,2352330036.8,2127317040.8,1933790563.7,1663669145.5,1423879352.3,1270327795.6,,,,,,,,,,
SSA,Sub-Saharan Africa (excluding high income),,392037832301.0,353102331622.8,335431449864.4,283169151443.7,250651947521.6,247609089376.7,224294866600.3,201924020481.6,178705804218.1,159016013175.6,149073365509.5,136683009668.9,128808616126.6,120983094249.9,171904517543.6,192765753732.7,187927902225.4,171251981427.5,154514760080.5,162397805019.7,156987394711.5,171445887164.9,168702847782.5,169885343975.7,174240176364.5,165618844416.7,152894398588.6,145097951040.7,148323872252.3,142971071687.3,128323655038.9,123103245065.7,121206319652.9,95287212649.6,76735058918.1,63438431993.4,61568922545.3,55073953470.9,47282304782.0,41706416110.0,35119933290.4,29154538148.6,22879442648.2,17801563888.8,15645822502.4,13294325489.2,10829614082.2,8472464456.5,7437787748.2,5725724282.7,,,,,,,,,,
SSD,South Sudan,,,,,,,,,,,,,,,,,,,,,,,,,,,,,,,,,,,,,,,,,,,,,,,,,,,,,,,,,,,,,
SSF,Sub-Saharan Africa,,,,,,,,,,,,,,,,,,,,,,,,,,,,,,,,,,,,,,,,,,,,,,,,,,,,,,,,,,,,,
SST,Small states,,,,,,,,,,,,,,,,,,,,,,,,,,,,,,,,,,,,,,,,,,,,,,,,,,,,,,,,,,,,,
STP,Sao Tome and Principe,,225209570.2,226285951.1,245460792.6,224523971.5,219225376.2,201459847.6,185554398.0,171416012.2,188229647.6,145303682.8,124976251.3,108747368.5,143464681.1,331430370.5,317134347.8,340412287.6,320825223.6,301183797.0,283158377.4,278284987.9,291077548.1,243630765.6,226848348.7,226526919.0,231840412.8,201237330.6,181898197.1,169131840.5,150401298.9,132866555.3,113347627.7,100798565.7,91128488.8,76751882.9,61873070.4,53884975.6,42774839.4,36835228.9,29421443.2,23460544.5,14719040.6,10315766.6,2183745.2,,,,,,,,,,,,,,,,,
SUR,Suriname,,,,,,,,,,,,,,,,,,,,,,,,,,,,,,,,,,,,,,,,,,,,,,,,,,,,,,,,,,,,,
SVK,Slovak Republic,,,,,,,,,,,,,,,,,,,,,,,,,,,,,,,,,,,,,,,,,,,,,,,,,,,,,,,,,,,,,
SVN,Slovenia,,,,,,,,,,,,,,,,,,,,,,,,,,,,,,,,,,,,,,,,,,,,,,,,,,,,,,,,,,,,,
SWE,Sweden,,,,,,,,,,,,,,,,,,,,,,,,,,,,,,,,,,,,,,,,,,,,,,,,,,,,,,,,,,,,,
SWZ,Eswatini,,528124533.8,418752457.6,397650654.0,359654412.8,285953495.0,293017142.9,315049573.9,350075428.3,369850304.6,416406442.5,427994271.8,417276757.3,446205180.3,404965690.5,406786395.3,402188753.9,384191935.1,329636205.1,268448495.6,262335436.1,278646289.5,272585989.0,250946483.1,232796204.0,238522620.1,232090213.8,221094052.4,231807035.7,255668849.4,251439050.2,249514351.4,249961045.7,279622338.6,245853419.5,207418427.8,170182597.1,184842757.5,186694164.9,174606366.1,186931530.3,171935456.9,131244663.9,52099341.7,40783709.8,33746594.9,36186536.7,36932052.2,32579541.5,34636158.6,37033600.0,,,,,,,,,,
SXM,Sint Maarten (Dutch part),,,,,,,,,,,,,,,,,,,,,,,,,,,,,,,,,,,,,,,,,,,,,,,,,,,,,,,,,,,,,
SYC,Seychelles,,,,,,,,,,,,,,,,,,,,,,,,,,,,,,,,,,,,,,,,,,,,,,,,,,,,,,,,,,,,,
SYR,Syrian Arab Republic,,3634865796.6,3647090821.1,3653664156.6,3497197361.4,3528277984.4,3671617520.3,3906412799.5,3955791401.2,4005638608.3,4284407470.4,4490647537.9,4747170822.6,,,,,,,,,,,,,,,,,,,,,,,,,,,,,,,,,,,,,,,,,,,,,,,,
TCA,Turks and Caicos Islands,,,,,,,,,,,,,,,,,,,,,,,,,,,,,,,,,,,,,,,,,,,,,,,,,,,,,,,,,,,,,
TCD,Chad,,3075169804.8,3097559296.9,3122563385.2,2824264032.9,2756367984.4,3622117186.4,2819084434.3,2252379337.8,2221928735.3,2048862245.3,1749857939.6,1743142886.0,1752328635.5,1662378994.4,1525817574.3,1526484256.8,1404318285.6,1137776000.3,976526736.7,985530460.0,1002149951.0,944194131.1,870465297.3,864124904.8,775765793.9,714938703.1,638619649.9,590203290.1,547617071.0,453951550.6,346875713.8,341464805.4,290062370.8,221251543.1,184255801.3,182155133.4,200557235.7,198543720.2,232984507.5,259010194.2,273132860.5,245879271.1,188624269.1,142146757.8,137874861.7,70778681.3,45620625.7,33526139.9,44076325.3,32501359.3,,,,,,,,,,
TEA,East Asia & Pacific (IDA & IBRD countries),,,,,,,,,,,,,,,,,,,,,,,,,,,,,,,,,,,,,,,,,,,,,,,,,,,,,,,,,,,,,
TEC,Europe & Central Asia (IDA & IBRD countries),,,,,,,,,,,,,,,,,,,,,,,,,,,,,,,,,,,,,,,,,,,,,,,,,,,,,,,,,,,,,
TGO,Togo,,1561431702.3,1369292863.3,1349768588.2,1170219841.7,844788724.9,716139109.4,591212319.4,449329705.9,368776298.4,1002710084.8,1478993676.5,1465904617.8,1637822930.1,1538154767.3,1439529599.4,1598486796.3,1497663898.3,1335739734.6,1203790026.6,1229633542.9,1286573465.6,1325151414.0,1213053369.8,1309367385.7,1285413462.8,1227914967.9,1126673421.6,1134850187.1,1139263626.6,1080511815.9,936926500.1,1057686435.4,1047504685.1,885341379.6,786492031.1,676794114.8,790972653.6,787658451.6,846420784.8,969514299.5,982114495.8,709759026.7,384619638.7,233035784.3,167680508.0,126498168.2,69512425.4,47046592.5,46894651.9,39762347.3,,,,,,,,,,
THA,Thailand,,39497155847.9,35900980169.8,29544083003.8,23191929451.1,22419574168.1,25228178450.9,25826784046.2,26541974896.6,20455667676.6,15928879168.2,10667987111.1,9858606321.6,8940516715.0,10686626376.5,12601976733.5,14910663157.9,17711636377.1,22533779816.3,26217650575.9,29462359755.9,31322985370.3,28114389780.3,22323906125.7,16929031380.9,16880501586.0,16265779733.3,14775865061.2,13362975860.1,13309405224.6,12530932572.7,12512520594.3,13285289636.6,13911921228.4,11520154415.2,9853924520.6,7186415597.7,6901743100.3,6033753228.4,5017005799.5,3943306277.6,2695023459.9,1746880871.9,1101738218.2,822733646.1,616117539.0,512893354.9,441490376.2,386011687.8,356828839.7,324072108.9,,,,,,,,,,
TJK,Tajikistan,,2830103488.5,2847717593.8,2825066767.8,2168768828.4,2092614464.0,1983764111.1,2010512948.5,1999591125.0,1966046663.2,1805928324.0,1606209064.5,1378916877.9,1067270172.1,832405978.4,821072009.5,807299588.8,911502930.5,902438467.3,761609230.7,755073275.5,733689738.9,691213447.9,656870000.0,653471000.0,586995000.0,559618000.0,382514000.0,9731000.0,,,,,,,,,,,,,,,,,,,,,,,,,,,,,,,,
TKM,Turkmenistan,,426953132.3,468927090.7,220555132.4,231372152.6,231378072.2,261883865.1,281027963.6,271729224.1,267109130.4,361517019.6,466105315.5,590495846.8,648171705.6,730469932.0,877830723.3,1226597935.1,1445254581.4,1583048048.2,1855919905.1,2271305528.7,2311178372.3,1869814984.4,1338197230.3,469589255.3,384852891.0,346320365.8,276435325.0,,,,,,,,,,,,,,,,,,,,,,,,,,,,,,,,,
TLA,Latin America & the Caribbean (IDA & IBRD countries),,,,,,,,,,,,,,,,,,,,,,,,,,,,,,,,,,,,,,,,,,,,,,,,,,,,,,,,,,,,,
TLS,Timor-Leste,,191217193.5,144718419.8,110538690.0,70518575.3,45718755.2,21841087.5,7314580.4,10000.0,,,,,,,,,,,,,,,,,,,,,,,,,,,,,,,,,,,,,,,,,,,,,,,,,,,,
TMN,Middle East & North Africa (IDA & IBRD countries),,,,,,,,,,,,,,,,,,,,,,,,,,,,,,,,,,,,,,,,,,,,,,,,,,,,,,,,,,,,,
TON,Tonga,,177383472.0,177680753.8,183700121.5,165564622.2,175219326.9,186388150.9,189424775.6,187845819.7,181062254.8,143506405.5,104575697.8,88823303.6,86468615.1,81568995.0,79506330.5,83389013.3,82864458.8,71779705.5,62558642.1,65000615.6,68673450.9,64194097.4,57649497.8,62485061.3,62794187.2,57640380.3,43671811.7,42632995.3,44235161.5,44453028.0,38080012.4,36969875.0,35556245.2,28438950.0,23828074.2,,,,,,,,,,,,,,,,,,,,,,,,,
TSA,South Asia (IDA & IBRD),,,,,,,,,,,,,,,,,,,,,,,,,,,,,,,,,,,,,,,,,,,,,,,,,,,,,,,,,,,,,
TSS,Sub-Saharan Africa (IDA & IBRD countries),,,,,,,,,,,,,,,,,,,,,,,,,,,,,,,,,,,,,,,,,,,,,,,,,,,,,,,,,,,,,
TTO,Trinidad and Tobago,,,,,,,,,,,,,,,,,,,,,,,,,,,,,,,,,,,,,,,,,,,,,,,,,,,,,,,,,,,,,
TUN,Tunisia,,23857244863.8,22606495019.4,22386446375.5,18719276856.6,18216146087.3,17040688854.3,16981869312.6,16680895085.1,15040998710.4,14778288086.3,14948173392.6,14544047763.9,14604011016.0,13499159336.7,13017298859.7,14493576276.0,13237829694.6,10977413125.5,9112136088.5,8888330085.3,9479744438.0,9495066455.4,9334017038.0,9377816627.0,9023471073.6,8007114356.2,7417017190.7,7201892103.7,7110457220.4,6661573070.0,6103787281.6,5953819022.0,6066818566.4,5282927557.0,4457269727.2,3706509758.7,3819710519.8,3503934492.5,3316272894.0,3217079839.2,3018923275.7,2452089136.6,1893053863.2,1197716372.2,1034781671.1,935302314.5,817759673.9,699125154.8,624676154.3,545930003.2,,,,,,,,,,
TUR,Turkey,,124922785289.0,121211317429.7,117842767955.7,107727450774.7,103282936065.9,105469489584.9,106279414203.3,100190406718.4,95225327622.8,93280799218.1,87184897955.5,83916502475.3,82687731716.2,69901752003.3,64436027296.7,69775446874.7,65585464344.2,59605388719.9,53691106817.5,55736411677.6,50143296287.5,50008216178.4,47448206111.2,49199186165.8,50317002773.5,48436753455.6,44063719966.0,40462716153.6,39828826639.5,38870339195.2,34989899329.7,33742055799.5,31684182463.8,24996941354.0,19568372741.0,16571790063.2,16070391416.4,16095927709.2,15272311774.6,15040434135.0,11041362760.8,6489662075.5,4471164698.7,3647884289.8,3210639386.7,3164121915.4,2888009180.0,2470069347.9,2231325317.4,1846323200.2,,,,,,,,,,
TUV,Tuvalu,,,,,,,,,,,,,,,,,,,,,,,,,,,,,,,,,,,,,,,,,,,,,,,,,,,,,,,,,,,,,
TZA,Tanzania,,14100648100.3,12862321953.0,12698673020.0,11154980637.8,10764632959.4,10002561650.2,9207640179.9,7422203549.3,6445773263.9,5600048157.6,4639929487.8,3712041150.1,3183046388.4,2454368497.1,6456164548.5,6530434044.2,5999171040.2,5991488305.5,5524871998.6,5974373819.7,6556575657.1,6320381962.7,6011268200.5,6105455104.7,6209818457.8,6129840462.2,5804244411.7,5860057513.0,5801941002.5,5772383321.2,5277853276.5,5251005555.1,4834900309.4,4425241300.2,4634577895.4,3995432130.7,3969820602.5,3723451439.0,3659567364.0,3300013469.0,2793016062.5,3016681649.2,2564194294.9,2070620491.8,1867951712.8,1667753125.2,1537057800.2,1282103632.7,1143689697.2,173359339.6,,,,,,,,,,
UGA,Uganda,,8637660854.0,7700546042.8,6889574028.7,5445726770.8,4869307188.3,4212824079.9,4064481062.1,3478408116.0,2963297088.0,2672930594.2,2247244064.6,1780109736.0,1570675716.4,1099379621.1,4208684834.6,4417544312.8,4150224637.9,3564532076.7,3304841244.1,3051302316.5,2994177472.7,3401017242.6,3391080208.7,3177347145.3,3089137116.0,2885717198.0,2614499753.3,2448612469.6,2299826400.5,2177461373.5,1861493665.7,1606751000.1,1601092094.7,1111898777.3,893049965.4,698106973.6,604004664.5,541614048.3,463977366.8,538280580.1,509886582.9,380215002.2,257285821.0,203474247.1,179799272.9,183403327.1,163281201.4,166691069.2,161489392.7,151654789.3,,,,,,,,,,
UKR,Ukraine,,38396108407.2,36155735657.9,36051978212.8,33097104391.0,32425504598.4,33055956392.8,31282770708.8,28729002896.3,27037470278.0,25327041184.6,19010555410.5,15904018415.0,16008180108.3,12121613447.8,10448169132.3,10594627281.4,8896257481.2,8277753500.4,8104465918.4,8147589475.3,9595652615.7,8975906874.2,7015156682.5,6647547186.1,6580507107.4,4809631466.1,3682134092.6,453567959.6,,,,,,,,,,,,,,,,,,,,,,,,,,,,,,,,
UMC,Upper middle income,,2056077106942.4,1933427541913.5,1849166033526.5,1655031441081.1,1543828121002.9,1578381013298.8,1485690660930.1,1332444880739.6,1167062379788.8,1063787583518.7,965189792216.7,904342386998.5,876338479931.1,803529311727.0,792342518908.7,861869926002.3,834591028390.5,796492219266.7,771884367345.3,777185591798.7,806887002329.7,792148591784.5,744805715710.9,737181370542.0,734226584968.1,693250544511.8,630397011465.5,558313074822.8,540271128510.5,520334327782.6,495714191311.3,484176538395.9,475748269966.0,407262567833.8,353025509639.1,309776976562.9,272164818412.2,224641955337.4,194698114773.4,173571186078.0,140876300410.7,116445954506.3,90583806923.3,72292379653.0,56647911354.2,45055984858.1,35332187615.5,28140409777.0,23127098713.8,19408114938.3,,,,,,,,,,
URY,Uruguay,,,,,,,,,,,,,,,,,,,,,,,,,,,,,,,,,,,,,,,,,,,,,,,,,,,,,,,,,,,,,
USA,United States,,,,,,,,,,,,,,,,,,,,,,,,,,,,,,,,,,,,,,,,,,,,,,,,,,,,,,,,,,,,,
UZB,Uzbekistan,,11789779225.3,9412574400.6,7545292609.6,6602917423.3,5605096819.2,4711043038.2,4276890777.3,3970833329.6,3755785079.8,3423121328.6,3268818124.3,3188485002.4,3179418545.8,3318304045.4,3625891140.9,4107144547.1,4147857718.8,4004694773.6,3896923990.1,3765629046.8,3575455212.6,2668839179.6,2120537742.2,1993607819.0,1417205093.1,952426534.1,939492376.2,59702042.9,,,,,,,,,,,,,,,,,,,,,,,,,,,,,,,,
VCT,St. Vincent and the Grenadines,,341240818.4,308322670.5,314851604.9,306523628.4,318873693.3,313683612.2,288664827.5,265035413.1,281058427.7,277974923.8,227268733.0,231461550.9,199822690.8,242460047.8,247838294.1,224527581.4,195528873.1,172779463.8,162366731.7,163254612.9,161446178.8,107902400.8,92160017.1,93072508.5,91327242.2,91431393.9,77978778.3,74686086.8,66767111.7,60590524.3,50980311.1,45197889.8,38461042.6,28359091.2,24791525.4,22775931.2,22612419.7,19623599.3,17016945.8,10327041.1,7234320.1,5687595.1,4743825.9,3738360.1,3447069.1,3191053.4,2787896.7,775370.6,739739.9,1455000.0,,,,,,,,,,
VEN,"Venezuela, RB",,66103967589.7,66115751914.7,66156947958.6,66144931026.3,67098322948.3,69293231220.8,67166651564.2,66976134465.8,61391853925.2,52274899436.5,44972592341.6,36111378350.2,33990318129.3,31419495540.1,36223245707.1,33593163035.9,33196436346.9,31028517591.7,32423157289.3,34524524259.7,33525990540.3,33654549348.1,31707955678.2,29019686610.2,28428963206.7,28132460156.6,26856355539.9,25830706266.5,24940031666.0,24510835234.1,25169775804.4,25186097422.3,25015479171.1,25337868862.2,17748148708.2,18792010867.4,14846579511.5,12473435709.2,11570480646.0,10651620329.3,9802989922.5,6762066662.8,4489569214.3,3024741537.7,1325675076.8,1558501169.7,1607229891.5,1484592345.7,1080662296.6,789648522.8,,,,,,,,,,
VGB,British Virgin Islands,,,,,,,,,,,,,,,,,,,,,,,,,,,,,,,,,,,,,,,,,,,,,,,,,,,,,,,,,,,,,
VIR,Virgin Islands (U.S.),,,,,,,,,,,,,,,,,,,,,,,,,,,,,,,,,,,,,,,,,,,,,,,,,,,,,,,,,,,,,
VNM,Vietnam,,51788444611.9,52119194274.2,51790610013.2,48038108139.1,46365432221.7,44833860207.8,42969203469.9,39972500094.7,36785622150.9,32798255716.0,27381214458.3,22077086301.2,18480401674.2,16035513391.3,16260070959.5,15570380897.5,14339628270.9,12196850035.4,11487881697.1,11639842786.4,20532481793.6,19928031614.4,19036691511.4,22017237691.5,21833945554.2,21909884125.8,21655723398.8,21705799222.6,21360489003.2,21378096806.3,19185383025.4,493237000.0,65197000.0,65794000.0,61267000.0,54570000.0,52564000.0,42766000.0,25579000.0,,,,,,,,,,,,,,,,,,,,,
VUT,Vanuatu,,341326526.3,313804791.3,287597526.2,210859016.0,171979037.2,98934912.8,109735868.5,105211262.4,106470691.8,102604923.8,98807675.1,89712945.9,78074135.7,72005342.0,71887916.0,83559229.0,81974338.5,76469297.0,70221022.7,73069673.3,64510938.2,55167377.7,39734564.0,42879676.1,43945486.7,40581300.9,37189501.8,35397064.6,33629375.1,28617710.6,20815049.9,15278350.6,13649703.4,8237361.2,6762868.4,4939707.6,3619149.0,4077203.2,3008900.0,,,,,,,,,,,,,,,,,,,,,
WLD,World,,,,,,,,,,,,,,,,,,,,,,,,,,,,,,,,,,,,,,,,,,,,,,,,,,,,,,,,,,,,,
WSM,Samoa,,387604109.7,403181671.1,415716498.8,390071498.3,407588456.0,417309114.1,412288142.5,396943902.2,342376174.9,299085556.7,226396415.3,205606279.8,185889495.6,163722732.5,167465803.6,174722785.3,166913880.1,146733156.9,134027017.3,137684256.2,146434372.0,143914846.6,138772310.4,153444538.2,160047723.2,154590275.0,140423299.7,117763888.7,113416052.1,90971518.0,71866714.8,71115023.2,71403262.3,64638072.8,63757839.8,63021012.2,58699655.3,58454979.8,54707731.9,53411343.1,46226902.8,36661558.9,28992336.2,20428900.5,15916126.3,13599580.8,9456791.6,4379777.5,2610000.0,2682000.0,,,,,,,,,,
XKX,Kosovo,,319749425.9,304633220.2,313379655.3,274180865.8,265104457.3,272995586.0,300175062.7,294707716.0,299378000.0,318968000.0,358529325.0,,,,,,,,,,,,,,,,,,,,,,,,,,,,,,,,,,,,,,,,,,,,,,,,,
YEM,"Yemen, Rep.",,6188033657.6,6205138005.7,6316908229.4,6322431589.9,6476650409.8,6861841969.0,6924477603.6,6942428055.2,5887842504.5,5944744525.7,5875380196.0,5695551276.9,5524345612.8,5098748866.4,4814002394.9,4882648206.6,4816297928.6,4571726624.8,4351977023.2,4109003207.7,4271506364.0,5277601398.5,3477028747.8,5659907260.4,5561789325.7,5487967242.9,5363175373.6,5255368393.5,5257507398.1,5162318822.8,4645197520.5,4395725505.0,4060665975.3,3440850696.5,2968422310.1,2585040023.8,2492726305.3,2146213611.6,1813874808.0,1454893287.5,947453119.4,737667306.6,542895908.1,418670139.2,351635332.8,311995628.1,222062210.8,85158610.5,41815506.2,,,,,,,,,,,
ZAF,South Africa,,85871995743.4,70560408773.3,78220745961.3,58459329690.5,44115391722.5,56545847581.7,55048648865.0,58514918889.1,43280881260.6,36292495224.9,23262814317.0,21300363524.4,17294244296.6,17764415757.2,18353870565.0,17778603255.9,18157388738.9,16106285777.4,8866614722.7,10186103862.0,9380918777.1,11929749566.3,16878392969.6,10347474379.0,9836655821.1,7789024059.0,,,,,,,,,,,,,,,,,,,,,,,,,,,,,,,,,,
ZMB,Zambia,,11103865891.5,9919691979.6,8784509183.7,7059997275.0,6487149054.9,4796395195.4,3375825098.4,3011313622.3,1785784242.7,1191503868.6,1099947648.3,1057459416.1,1005354518.4,861758139.9,3850813406.0,5841212795.7,5572569114.7,5255583478.1,4826635975.2,4443649851.0,4505435570.8,5326311136.3,5251475347.6,5369174780.2,5290763817.7,5180462915.9,4391270795.3,4506203878.5,4694782001.8,4541136917.5,4103445455.8,4315185045.0,4341683368.2,3735388719.6,3016525693.4,2543907151.1,2500314905.4,2289709720.3,2168767680.2,2132206996.4,1811342334.4,1460303801.5,1398608449.5,1294590442.1,1141219401.5,808254084.0,704607624.2,677269149.4,633825763.0,623521836.3,,,,,,,,,,
ZWE,Zimbabwe,,4386399547.1,4307711272.8,4340641161.4,4247686679.0,4206659131.4,3999434479.0,4144625590.7,4094802947.9,3882279507.5,3805466101.2,3876012094.2,3749453274.0,3790811938.0,3457746120.1,3262192398.0,3610778279.9,3434468049.1,3085858597.6,2752358303.2,2845769526.6,3056058854.4,3268306716.4,3134126365.0,3393876386.2,3536489560.4,3434884483.3,3115257745.0,2945238544.8,2690687197.8,2534959726.7,2338817436.7,2290803236.0,2443065012.2,2066761659.6,1794048458.4,1512920422.1,1432342233.1,1212892580.4,805051748.0,695615492.4,524236734.4,418075279.6,153462732.0,143900096.4,186854615.4,217428044.0,217482194.3,213774088.6,233702350.7,229163360.0,,,,,,,,,,
