economy,Country Name,YR2020,YR2019,YR2018,YR2017,YR2016,YR2015,YR2014,YR2013,YR2012,YR2011,YR2010,YR2009,YR2008,YR2007,YR2006,YR2005,YR2004,YR2003,YR2002,YR2001,YR2000,YR1999,YR1998,YR1997,YR1996,YR1995,YR1994,YR1993,YR1992,YR1991,YR1990,YR1989,YR1988,YR1987,YR1986,YR1985,YR1984,YR1983,YR1982,YR1981,YR1980,YR1979,YR1978,YR1977,YR1976,YR1975,YR1974,YR1973,YR1972,YR1971,YR1970,YR1969,YR1968,YR1967,YR1966,YR1965,YR1964,YR1963,YR1962,YR1961,YR1960
ABW,Aruba,,,,,,,,,,,,,,,,,,,,,,,,,,,,,,,,,,,,,,,,,,,,,,,,,,,,,,,,,,,,,
AFE,Africa Eastern and Southern,,,,,,,,,,,,,,,,,,,,,,,,,,,,,,,,,,,,,,,,,,,,,,,,,,,,,,,,,,,,,
AFG,Afghanistan,,3301566.2,-8379324.2,-19288779.0,-11077647.1,7349442.9,19638377.1,32498062.7,50447243.2,61379085.3,75035339.8,105634066.3,95104058.6,145710171.5,142941198.4,,,,,,,,,,,,,,,,,,,,,,,,,,,,,,,,,,,,,,,,,,,,,,
AFW,Africa Western and Central,,,,,,,,,,,,,,,,,,,,,,,,,,,,,,,,,,,,,,,,,,,,,,,,,,,,,,,,,,,,,
AGO,Angola,,-2059105219.1,-1103988842.1,1194356465.9,9430607173.9,-439333479.7,2353893855.8,2559504904.1,233821551.1,1845330841.7,891279739.3,787639852.0,779916938.3,542710554.9,-729661700.3,-186214988.3,37686480.1,64047752.5,-29286484.5,-1021831322.5,-234460560.5,-366037000.0,-353353702.4,-12699697.7,21711645.0,98127501.5,40745600.3,12472205.5,48092626.5,76437769.1,112642489.1,120370242.5,,,,,,,,,,,,,,,,,,,,,,,,,,,,,
ALB,Albania,,-755570.0,137300531.0,243348128.5,2589453.0,13112636.0,286208605.3,128244843.8,208874118.6,174170863.3,110710845.1,176814778.0,159757367.9,111200254.9,113833149.9,78981601.3,110482308.8,108554278.4,129587618.8,89246194.9,110698799.9,127910959.4,79608387.5,46213092.9,78722040.4,72187964.2,71508537.2,61434320.6,49400480.2,19659270.7,,,,,,,,,,,,,,,,,,,,,,,,,,,,,,,
AND,Andorra,,,,,,,,,,,,,,,,,,,,,,,,,,,,,,,,,,,,,,,,,,,,,,,,,,,,,,,,,,,,,
ARB,Arab World,,,,,,,,,,,,,,,,,,,,,,,,,,,,,,,,,,,,,,,,,,,,,,,,,,,,,,,,,,,,,
ARE,United Arab Emirates,,,,,,,,,,,,,,,,,,,,,,,,,,,,,,,,,,,,,,,,,,,,,,,,,,,,,,,,,,,,,
ARG,Argentina,,88200073.5,891603474.6,1357913613.9,-464770524.5,702348241.9,3629702407.8,1450976223.4,166498671.6,680902591.0,531599438.5,1702669173.9,-359508103.3,-313889256.7,-705803166.1,-504172425.8,-225948849.6,-750927207.8,-699563159.9,1142646308.3,109811598.8,778062683.5,1729937562.3,-65318450.2,38866896.4,1478395817.0,751372662.1,2659921231.4,96014679.9,751625366.8,452384082.2,434154076.8,453913580.0,687603316.3,295573165.4,223522504.6,-6622854.8,347093757.0,95131112.6,76043147.8,-3932769.3,227936916.0,337705517.7,49884145.5,85820322.6,67103035.1,211530890.9,163324944.5,46928481.3,77354871.2,66846961.1,,,,,,,,,,
ARM,Armenia,,206687396.1,208493730.4,577547564.5,522497662.0,402707696.4,236778100.6,-303426094.7,240195601.9,175410839.8,174455554.8,919748406.0,149432612.9,190170994.2,65832561.0,34363042.2,43182047.0,44685103.4,63972056.1,59000636.3,49547376.8,69335073.6,67117500.1,100480335.4,113318881.3,99549000.0,60542031.0,86756016.2,,,,,,,,,,,,,,,,,,,,,,,,,,,,,,,,,
ASM,American Samoa,,,,,,,,,,,,,,,,,,,,,,,,,,,,,,,,,,,,,,,,,,,,,,,,,,,,,,,,,,,,,
ATG,Antigua and Barbuda,,,,,,,,,,,,,,,,,,,,,,,,,,,,,,,,,,,,,,,,,,,,,,,,,,,,,,,,,,,,,
AUS,Australia,,,,,,,,,,,,,,,,,,,,,,,,,,,,,,,,,,,,,,,,,,,,,,,,,,,,,,,,,,,,,
AUT,Austria,,,,,,,,,,,,,,,,,,,,,,,,,,,,,,,,,,,,,,,,,,,,,,,,,,,,,,,,,,,,,
AZE,Azerbaijan,,432820408.5,245796862.4,901184636.2,864788044.8,339356921.8,472361827.1,265836705.5,874184179.6,654687404.9,325172684.6,334246980.6,235718362.8,204590364.9,123498532.7,33432377.0,40574361.7,134311925.1,175683313.1,99646917.6,200825961.4,172404839.6,70335403.8,27105049.4,46558536.4,102057749.8,67415315.9,,,,,,,,,,,,,,,,,,,,,,,,,,,,,,,,,,
BDI,Burundi,,7038313.9,2310893.3,4351655.9,7478867.0,15320728.6,30270245.0,-11366149.8,49953576.1,22220014.7,29145439.1,30775729.4,13530991.8,19998266.7,27232955.7,19551459.9,8311879.5,30918354.7,30797739.8,1289674.7,28799452.9,6590536.9,17063775.7,6545823.3,23036847.5,27934033.8,31652658.8,58871016.9,91984961.8,62489570.7,74146202.2,90625268.3,81090532.0,124829881.3,88106424.7,62043402.5,63596984.9,91558905.7,51098105.7,28465700.4,37515598.6,30481553.2,14138962.3,15519609.1,2779443.4,3809550.2,1425247.9,602962.8,-645142.0,201000.0,925877.7,,,,,,,,,,
BEL,Belgium,,,,,,,,,,,,,,,,,,,,,,,,,,,,,,,,,,,,,,,,,,,,,,,,,,,,,,,,,,,,,
BEN,Benin,,81945865.7,90709663.5,293252968.0,179569272.6,240196664.5,278530841.0,274577067.8,90265724.7,86299315.4,149227189.3,109349925.3,131828412.2,146450444.6,127723258.1,76383056.0,85882136.1,46633671.2,42612076.0,100357965.7,-2155596.7,41802610.9,31137108.7,21030722.4,84867957.7,67105843.1,59944531.0,60804146.6,67272787.9,81847952.2,101256718.3,123649455.9,53278492.3,56588038.0,63722620.4,29242704.1,32307379.1,52400917.8,77758304.1,28758597.1,57434653.6,47574814.0,30272463.6,39192637.7,24458407.7,12858261.5,7845402.1,38783466.6,3835662.8,6193659.1,1992939.8,,,,,,,,,,
BFA,Burkina Faso,,372616766.3,262382460.9,108353460.8,195573705.2,204805670.8,163311037.7,16987892.5,118384198.4,130584186.0,230873257.0,184168904.4,268771652.2,195040117.6,245599555.7,183458420.6,218403974.6,94674215.5,113607258.5,122558601.6,65132891.2,73614987.8,60388517.5,40704201.2,72940150.1,83077556.2,79627080.9,118598586.0,128221303.6,121824256.6,60912113.7,79284141.8,74709691.5,98626632.8,81697071.1,49533002.4,41025094.9,67313303.9,44534413.0,60061147.5,50869888.6,49040954.0,34675059.5,40992845.5,22655143.1,16309379.4,13598967.5,9447349.3,4223182.9,266920.2,143191.4,,,,,,,,,,
BGD,Bangladesh,,4814157621.6,5817865023.3,3753471856.1,2190575128.2,1274369724.8,1241098515.8,1098243817.3,1349177016.7,124940175.0,253070360.3,809469132.8,1118839524.5,365303337.5,602625835.8,321239009.9,472940827.4,481999103.4,214727460.8,359892504.6,328926709.3,381039125.9,382952524.8,255291028.4,562261771.4,264119687.6,716759585.8,393703318.4,632647933.2,496102260.1,806985977.9,936978297.4,783017224.2,738911671.6,818309049.3,546924326.6,490171281.5,427618766.4,746819629.2,474133187.5,550709075.7,486340183.7,318681296.7,266436754.7,270217561.4,427876943.5,507562363.7,289292003.5,64400913.7,,,,,,,,,,,,
BGR,Bulgaria,,-106623468.2,-91455275.5,30825593.7,433931000.0,26988621.2,-85399721.0,153312746.9,-5977933.6,79742682.9,-11789017.4,262847177.4,-352441068.9,61700957.5,-259486436.1,128016675.2,124019674.2,71003778.1,-111828220.4,-151642551.0,84408849.1,157930026.8,225759811.1,-75976117.7,40871330.6,37518990.2,348179620.5,241868829.9,59064195.0,28585788.9,57027016.3,61094167.7,378101133.7,650718838.9,276366674.5,73452903.2,10368408.2,,,,,,,,,,,,,,,,,,,,,,,,
BHR,Bahrain,,,,,,,,,,,,,,,,,,,,,,,,,,,,,,,,,,,,,,,,,,,,,,,,,,,,,,,,,,,,,
BHS,Bahamas,,,,,,,,,,,,,,,,,,,,,,,,,,,,,,,,,,,,,,,,,,,,,,,,,,,,,,,,,,,,,
BIH,Bosnia and Herzegovina,,54729256.3,89557571.9,57584503.4,183303950.5,54731273.3,455353564.3,512033676.6,308058861.7,241341899.6,318763796.4,208424682.7,71986086.9,65758773.4,64685198.1,101912276.4,236473015.2,68059052.6,75630779.8,-104528543.4,-71870555.1,122977984.5,,,,,,,,,,,,,,,,,,,,,,,,,,,,,,,,,,,,,,,
BLR,Belarus,,14994991.0,727030371.0,1812286120.8,913574073.5,1350288358.5,2773745155.6,2258090707.6,-1343084265.1,2656568413.4,1470113457.8,1154641143.8,1465956300.4,1487184080.5,-14760752.8,78016851.4,78638865.9,-41269129.2,41069740.6,-23330381.3,20970687.4,-3140240.6,90641661.7,43375710.6,33223696.0,47004296.8,151582045.9,211986216.2,,,,,,,,,,,,,,,,,,,,,,,,,,,,,,,,,
BLZ,Belize,,27923387.2,27021635.6,28450404.2,23502671.0,53378160.6,50388525.0,88632113.5,5594196.3,5924618.2,-6886698.5,27831610.3,-7316379.9,-32006554.8,58922952.8,20309522.4,18335316.3,37273072.2,34110761.0,29234221.6,19375885.6,12984070.9,7440931.9,14898441.5,26840623.0,8015261.3,2956286.0,2471883.4,23371483.1,9736186.2,6611089.8,13672753.7,2933391.5,4934162.8,5644282.9,16586573.6,3816136.5,11373671.0,3177352.0,6705658.8,7341684.8,9925164.9,8721931.8,4309905.0,4975023.6,177196.1,397876.8,-198721.2,-30018.4,-5071.9,4301100.0,,,,,,,,,,
BMU,Bermuda,,,,,,,,,,,,,,,,,,,,,,,,,,,,,,,,,,,,,,,,,,,,,,,,,,,,,,,,,,,,,
BOL,Bolivia,,1027210956.9,839568357.0,1060491897.0,723676007.8,644134530.0,516255942.5,583393790.6,322037396.8,539976254.0,337978421.1,234069688.1,191201383.7,113716894.8,60473521.0,248412149.9,312930785.8,431359936.1,346851108.6,225825064.2,115975233.8,150425802.4,100887787.4,199149947.7,200882490.5,276117544.8,210077113.3,185544321.4,271777939.5,167591553.7,125453766.7,243015804.0,203490081.3,154430437.9,230895852.7,-2812704.5,99599128.9,77536131.9,140940545.9,170598183.0,160731984.9,114826670.9,124422903.0,118586814.8,107416087.6,44190109.0,46509740.2,23556653.3,74809277.3,40349503.2,37410344.3,,,,,,,,,,
BRA,Brazil,,-4689094292.9,-357600198.3,7139902288.6,-1011956150.3,-238601138.4,3243446118.5,717525409.6,2655561028.1,-5116251187.0,8640600601.6,3386799465.9,1935788219.3,-200162471.5,-259532572.2,-12930178.2,-2671304478.5,-2245438673.2,687252970.5,2721549895.1,-1820775070.0,340728428.6,4854426943.9,-1166921517.5,-744716408.7,-1703279875.3,-2304381820.4,-596327487.6,-956228166.8,-1106133713.2,-655994098.9,205625839.7,51771097.3,56809070.3,1197406535.0,973485201.9,1525165765.5,1580957594.4,997448095.7,1232367104.7,820817690.0,435615017.8,660543017.7,416533234.8,396606002.2,1084359851.1,771742402.1,405366802.5,362387927.6,235857046.3,233355398.4,,,,,,,,,,
BRB,Barbados,,,,,,,,,,,,,,,,,,,,,,,,,,,,,,,,,,,,,,,,,,,,,,,,,,,,,,,,,,,,,
BRN,Brunei Darussalam,,,,,,,,,,,,,,,,,,,,,,,,,,,,,,,,,,,,,,,,,,,,,,,,,,,,,,,,,,,,,
BTN,Bhutan,,178516407.2,121960023.4,182621569.7,327782572.1,211134971.8,385561591.2,246009647.9,327618160.2,205834119.8,115154442.9,71903550.3,-11801076.0,7971952.1,39336210.5,77326210.3,85834186.3,87507927.8,93320429.0,74915698.9,30100548.0,3386018.3,55511404.3,14161002.6,13124634.1,4975621.8,7930168.1,9412759.1,9001889.0,6583384.5,8129930.3,7602911.3,5865334.8,15892110.3,11416760.5,5473997.3,1124232.4,692793.0,835926.7,330352.4,,,,,,,,,,,,,,,,,,,,,
BWA,Botswana,,-111208541.1,-87972187.3,-122904190.1,-88256798.4,-118994201.9,-397403.4,-124881700.3,45731141.9,539584505.4,-40377152.7,971761341.4,711366.1,19081051.2,-38127158.3,-27478538.6,-13899957.1,-22315170.6,-40528478.1,-29633301.7,-20998380.6,-40272141.2,-26073225.4,-47899677.8,-36965095.2,9673490.2,-342447.8,25440435.2,25765284.4,52202888.4,-20997973.6,37037369.5,19340977.7,64253073.8,16387443.8,57250348.1,57954647.5,28709652.3,22985205.2,22603729.2,18457121.5,10439919.4,7167841.8,13711582.6,22766875.7,24540470.3,18385291.3,41592563.0,45021344.3,15458053.7,2662700.0,,,,,,,,,,
CAF,Central African Republic,,5764409.9,51522752.7,-621518.1,7857773.4,67090829.4,92322761.8,17758993.3,19926500.6,19871977.2,32637970.5,12377013.1,-10566708.5,-39217717.7,-46988995.6,-712077.9,-5165262.6,-124123.3,483591.9,-8662494.8,8621374.5,-1157077.4,-8894280.8,2270288.5,25100166.0,30032258.3,36499312.9,47939603.1,41370987.5,94289135.1,105786465.2,57273694.7,84966632.9,82283134.0,72156900.0,43452595.5,28936270.1,16818159.3,15805082.4,29311783.0,25022015.8,12973374.5,4856915.0,11689350.9,9294635.3,8042128.2,1437242.6,1589134.5,7438090.3,2581374.0,430843.1,,,,,,,,,,
CAN,Canada,,,,,,,,,,,,,,,,,,,,,,,,,,,,,,,,,,,,,,,,,,,,,,,,,,,,,,,,,,,,,
CEB,Central Europe and the Baltics,,,,,,,,,,,,,,,,,,,,,,,,,,,,,,,,,,,,,,,,,,,,,,,,,,,,,,,,,,,,,
CHE,Switzerland,,,,,,,,,,,,,,,,,,,,,,,,,,,,,,,,,,,,,,,,,,,,,,,,,,,,,,,,,,,,,
CHI,Channel Islands,,,,,,,,,,,,,,,,,,,,,,,,,,,,,,,,,,,,,,,,,,,,,,,,,,,,,,,,,,,,,
CHL,Chile,,,,,,,,,,,,,,,,,,,,,,,,,,,,,,,,,,,,,,,,,,,,,,,,,,,,,,,,,,,,,
CHN,China,,-697988168.1,-1701786581.5,-3653018039.9,-3813640140.2,-3892925398.0,-167900761.2,-3624154735.9,-22819796.9,1454578920.7,-2277437354.7,1365509317.4,1938383803.7,1287361880.1,1662065233.2,1948264929.6,951704549.3,-2812248882.3,-1197905915.9,2157014815.9,1523212106.2,3427579348.9,2299465023.3,4321692082.3,4403282380.8,7911530543.3,3153668262.6,4668790765.0,2393910936.5,2043611889.0,1726669652.1,2276677167.3,1355437587.7,626417806.6,1165422471.3,1116723546.1,830918918.3,622629368.7,657312684.7,506326996.7,,,,,,,,,,,,,,,,,,,,,
CIV,Cote d'Ivoire,,765150794.9,327809088.4,539942519.1,42939320.2,1533870233.0,298066285.0,501775168.8,-133078857.2,344642069.2,-220259636.6,-448053241.9,-550983232.4,-54395554.3,75047421.5,1509014.2,-7957822.2,-148899986.1,-95409514.8,-178136062.9,-130563345.7,-288334292.5,38725953.5,-144218937.5,-45168303.7,190022936.2,563066734.9,329658413.9,360939788.2,393289815.1,511438985.3,211198429.6,82417877.0,430039583.6,114526751.7,92035225.9,299599119.2,322555187.5,352250132.7,71644043.4,161826827.9,235367074.3,166849188.2,189343602.1,75550615.6,77750199.4,33053054.6,47884895.0,24617226.0,48949562.9,32472498.8,,,,,,,,,,
CMR,Cameroon,,1229563754.7,1112048074.9,1317609423.6,895877755.8,547452823.7,838138246.6,972452512.6,617132927.6,41232941.9,150146061.1,24308602.2,39466732.8,-1333280.7,-64391330.6,-266159903.0,-89991478.0,13775477.2,-25012466.9,56445465.1,85052810.9,36163968.5,-39099308.0,19264830.7,-18568620.6,14750372.1,310395728.1,379728283.7,444660767.3,202463338.2,449971522.9,311661922.4,135585474.7,133087401.8,153120309.1,104586452.7,112481284.1,159160988.8,106203788.7,235722482.6,221401343.7,262593147.9,152710372.9,208780345.0,60289485.3,59164592.1,24750929.6,34578549.2,44142472.3,22107927.4,22921645.1,,,,,,,,,,
COD,"Congo, Dem. Rep.",,41217833.0,37277755.6,166423768.7,-196771839.0,58041161.3,-139936011.9,261921399.6,121245349.2,24259577.1,-26769127.5,-72840102.1,-52688537.0,-34420090.2,47668223.8,139514138.6,157064915.2,105788980.1,166952892.1,0.0,0.0,7499713.1,71909.2,-2000.0,3424529.6,,935381.2,53276400.7,58345948.9,276125386.9,278233739.9,328940752.6,335376094.5,311755126.9,201810120.4,71626032.5,84303485.2,124819213.2,121265564.9,233019038.8,133321151.6,40467600.7,160514327.3,175302955.3,232341723.9,221571977.1,131013407.7,23002356.1,34911985.1,14678713.4,6705681.8,,,,,,,,,,
COG,"Congo, Rep.",,2142080481.2,274888808.0,766389575.6,181287370.2,-118297195.7,471768654.2,442039353.2,349206643.5,263354105.7,792355500.9,-43623764.7,-32566737.5,-21784721.3,102112265.2,117658232.8,-74647584.7,1331208.8,-6692281.7,10506858.9,-5058950.2,2453057.0,-6550009.0,-27863717.7,-118507418.9,-17287099.4,187102857.7,-18153577.9,-2297878.0,11512157.7,60343444.1,25116575.3,138250878.1,133914568.0,86197803.5,111308074.4,61252975.2,132340255.1,97241440.2,87359875.0,89860663.7,115557676.4,69607631.4,39739812.5,22738868.7,79035881.2,18908696.1,12116905.0,11958599.1,13560326.3,13932756.6,,,,,,,,,,
COL,Colombia,,180123233.3,2501315706.3,152027256.0,2038578532.9,1285998724.2,757309200.8,1696640631.8,3080678122.2,290571026.3,1136929001.0,1467030514.9,1678167551.5,262612672.8,1051187722.1,-766168409.5,43306862.0,2011237539.7,-21274544.5,1265196019.5,95790914.2,954205050.4,207801452.8,-392317421.2,-127064065.1,-338607291.0,-514069811.2,-284122753.2,-267969527.7,-136571888.3,-18135515.4,62665916.5,303430658.9,184845784.8,573974745.1,863886541.0,626596206.9,527741725.0,410980192.7,292554559.2,287000728.1,139804400.3,102284665.0,65368433.0,65070421.0,120467169.2,129679543.0,171484907.2,146644336.6,124154545.6,175106151.1,,,,,,,,,,
COM,Comoros,,10987228.9,94289063.2,3620838.9,64945320.4,-6895212.8,-596457.6,-455068.6,-5493903.1,-2214224.1,-3121072.7,-6873407.3,-6750672.7,-8011752.1,644832.9,681643.5,1249946.3,8840784.0,8747214.4,10232870.1,937478.1,-1232177.1,2465265.6,4653386.3,9734016.1,9188000.0,8743522.2,4537942.5,14549631.6,-3002403.4,3915742.5,3767194.0,9281131.4,12915540.2,23294142.3,21968415.6,23334892.9,17836043.7,15432649.9,11335066.7,12613611.6,10078177.3,3497446.0,4385001.3,14192294.4,488875.5,2313262.2,54751.0,248466.4,-7643.9,-47431.3,,,,,,,,,,
CPV,Cabo Verde,,73887544.9,38483478.6,66685310.4,27540526.6,88897464.3,98573853.8,101842293.9,87974485.1,80485176.8,100143354.3,81394482.2,55232062.9,32515870.3,30078751.5,41438113.3,11763206.3,22223085.5,18544445.7,33203051.2,19480647.6,47621833.6,41319098.6,11603198.2,13966121.0,11837447.4,22406000.9,5759570.5,10790946.4,363654.1,8469603.6,6910177.7,5733761.3,3132367.7,7340363.1,14615603.0,12433310.2,16512658.8,22340923.7,20675413.2,,,,,,,,,,,,,,,,,,,,,
CRI,Costa Rica,,209227515.5,1332918215.7,184334359.0,518902623.5,322223955.3,362474345.9,-237764999.6,23934342.9,26068767.4,589635448.5,168466049.8,-91285001.6,-106692362.6,-138907409.0,-231354053.2,-13712746.2,153801212.7,-173031607.8,-157716468.0,-89107111.6,-136733244.5,12934822.7,-127120766.3,46916955.7,-126728222.0,-16496857.5,-76001201.8,-61114666.0,164231389.2,70496014.0,7657190.9,42907128.7,40285716.4,6439637.9,127558036.5,126497215.4,191218843.7,102732716.1,150270227.2,178812171.4,122122233.3,117199726.1,88696455.8,79498697.4,75757404.9,31818426.5,26226030.9,29674947.3,19420947.3,16188000.1,,,,,,,,,,
CSS,Caribbean small states,,,,,,,,,,,,,,,,,,,,,,,,,,,,,,,,,,,,,,,,,,,,,,,,,,,,,,,,,,,,,
CUB,Cuba,,,,,,,,,,,,,,,,,,,,,,,,,,,,,,,,,,,,,,,,,,,,,,,,,,,,,,,,,,,,,
CUW,Curacao,,,,,,,,,,,,,,,,,,,,,,,,,,,,,,,,,,,,,,,,,,,,,,,,,,,,,,,,,,,,,
CYM,Cayman Islands,,,,,,,,,,,,,,,,,,,,,,,,,,,,,,,,,,,,,,,,,,,,,,,,,,,,,,,,,,,,,
CYP,Cyprus,,,,,,,,,,,,,,,,,,,,,,,,,,,,,,,,,,,,,,,,,,,,,,,,,,,,,,,,,,,,,
CZE,Czech Republic,,,,,,,,,,,,,,,,,,,,,,,,,,,,,,,,,,,,,,,,,,,,,,,,,,,,,,,,,,,,,
DEU,Germany,,,,,,,,,,,,,,,,,,,,,,,,,,,,,,,,,,,,,,,,,,,,,,,,,,,,,,,,,,,,,
DJI,Djibouti,,101808495.7,113562836.8,312206269.3,442553517.5,390348580.5,187721883.2,37226259.2,-2489735.4,32302729.4,15158455.5,49870694.8,29369652.3,25860203.7,29985570.5,15434592.5,13790577.0,19736738.9,23294540.3,5357914.9,-682477.3,-3087626.9,1791042.4,6939927.1,14856740.9,9237034.1,16941523.6,19142897.5,35771208.9,46078824.9,18639688.3,3243467.2,13854733.9,23178043.0,21221642.9,29527724.2,38664845.3,12969419.6,3682691.9,-791021.2,3026793.7,-1284737.9,-567434.7,968930.1,6472027.8,4290106.0,1440112.9,468191.6,2722944.0,-118466.8,1300088.9,,,,,,,,,,
DMA,Dominica,,-8732858.1,-11415141.1,-7549363.5,-11965837.9,8699723.2,11247403.0,13549787.4,28706927.0,9020742.3,19907286.6,-4305421.8,-6759281.9,-5634829.0,-7449693.4,-5161392.4,11081395.5,11535582.8,10205765.9,14155482.6,18822558.8,2522150.5,1428894.2,-3556004.4,4312176.0,5765873.5,-30107.4,1932384.2,5752803.6,7621146.1,8803996.4,8042729.4,3178922.7,6221035.2,858387.8,5116979.0,15624362.5,3024990.0,7767392.4,1719853.6,,,,,,,,,,,,,,,,,,,,,
DNK,Denmark,,,,,,,,,,,,,,,,,,,,,,,,,,,,,,,,,,,,,,,,,,,,,,,,,,,,,,,,,,,,,
DOM,Dominican Republic,,624714024.6,282289761.3,-124179314.2,156570175.8,-1251685246.8,-43240543.1,950026749.4,1055848273.7,746007220.8,869283550.1,1042289844.4,710178477.5,92696324.7,259521561.0,154132135.6,297435964.0,71253535.9,9687888.8,-45572047.5,-65580387.5,53838622.1,-32720062.5,-96099139.2,-35038143.2,19774612.7,-54237946.4,-17110692.0,-14162530.8,17741288.1,56228731.6,122204685.2,54271632.6,74004217.9,105907662.0,143896800.5,219953546.4,91198908.1,286756954.6,193669274.6,292522538.5,70075113.1,53060000.0,56228210.2,59922836.8,42440740.8,11780113.0,11921967.6,17366000.0,27416000.0,35634000.0,,,,,,,,,,
DZA,Algeria,,-87750611.7,-99054650.7,-97028489.0,879678861.9,-117253200.4,-141725053.3,-131583935.9,-456976953.7,-231665601.0,-128524784.6,-54429833.7,-177189430.0,-43172244.7,-10785671919.4,-2574100583.4,-1813948303.3,-791770200.7,-688363353.0,-723573864.9,-254689736.3,-366902233.9,-258107902.4,163329630.4,915593260.2,925022608.8,861864736.6,1776306.8,243671626.7,471520490.2,661601401.0,204658757.9,-174272102.9,-370158287.7,-121146611.3,-111700529.2,169639897.0,352460074.2,262730139.5,227343117.6,321730175.8,710216687.2,603006082.8,500425907.6,116490281.5,114603535.6,136876353.6,153112959.1,79158666.3,84827422.2,32096447.4,,,,,,,,,,
EAP,East Asia & Pacific (excluding high income),,2881382889.9,4010907384.4,377748863.799999,87013078.1000005,2334392006.2,4518019108.0,1094950704.3,3844603655.8,4368961663.8,2613987960.2,5760590134.3,1379074767.7,-659997546.5,525875617.8,-115203383.8,-3148716566.1,-6171338699.7,-4820629352.2,3498677666.7,5084707696.3,10003118635.6,7520957671.6,11505751838.0,4467881880.8,8904769585.6,5516786686.6,8601177149.8,7138048522.9,6542958492.3,5490253227.2,6535465013.6,5103037697.9,4448165594.3,3193503096.5,3354318932.2,4080803808.9,4120374033.2,3330983843.6,3384192713.8,2288505037.3,2037117733.0,1566931964.9,1355987490.8,1220917901.6,863730115.6,746106003.9,771589672.8,603152888.5,385234159.7,445794433.9,,,,,,,,,,
EAR,Early-demographic dividend,,,,,,,,,,,,,,,,,,,,,,,,,,,,,,,,,,,,,,,,,,,,,,,,,,,,,,,,,,,,,
EAS,East Asia & Pacific,,,,,,,,,,,,,,,,,,,,,,,,,,,,,,,,,,,,,,,,,,,,,,,,,,,,,,,,,,,,,
ECA,Europe & Central Asia (excluding high income),,2751896165.3,4191361253.9,6896774974.7,6536682017.9,7259078913.0,11227822156.7,3586949669.7,2933976468.2,6169832086.7,13396664466.6,12239056840.4,4092529569.0,2808247201.1,-24777665065.5,-18861611418.6,-1662600191.9,-2226742263.3,-989493500.5,147645013.6,277801386.0,2118064398.2,2583860168.2,3743217042.0,4244032278.2,711048118.4,1780434046.7,2042219631.7,1426835113.6,3211426603.9,3397704557.2,-49085219.1999999,666996331.4,1521686794.0,782679126.8,491067653.3,1296261044.7,469960174.6,1100882935.5,1748457542.8,1614838088.7,1221777999.6,943558414.9,478697066.1,671828748.9,482200634.7,387300701.5,530702137.7,338805992.4,332281590.5,285242363.8,,,,,,,,,,
ECS,Europe & Central Asia,,,,,,,,,,,,,,,,,,,,,,,,,,,,,,,,,,,,,,,,,,,,,,,,,,,,,,,,,,,,,
ECU,Ecuador,,955757785.8,180333858.6,-10569554.4,2637059536.3,2004818341.6,937418424.0,2084714034.1,329798234.8,1403208564.5,1726567452.7,-101343822.4,-554389426.5,384561907.9,84185018.4,-465717372.1,-365599553.9,18943090.8,-134094320.5,81352084.4,139460382.8,165439849.0,157359727.8,2834159.5,278561787.5,242563944.6,73236274.7,86172854.5,67408309.4,100355561.5,48703701.1,180739942.2,261406191.2,335301702.5,488230342.9,178538288.4,216184999.4,32775842.3,-158989525.4,399360638.1,223300548.3,-45873655.5,77814434.2,62347860.9,83046407.1,64652688.1,34982072.8,16677466.8,15983278.7,12968249.2,12721718.5,,,,,,,,,,
EGY,"Egypt, Arab Rep.",,1865732489.5,3789641714.4,3772329265.6,10020086630.5,5673031824.5,-906114333.8,7572933377.9,1398686226.7,-713139257.9,-189082160.9,133750584.6,-851523656.8,671418018.1,-559806385.0,-227412115.5,-429983148.2,-750270016.7,-628597351.7,-735610530.5,-646102772.2,-492367048.1,-196940585.4,-134025915.9,75382864.3,59919211.9,559955241.9,638975735.0,489231054.6,525014478.6,313633235.2,397902306.5,909011783.5,753031164.8,879488207.5,1639266995.6,1744854613.2,1457166709.6,2191473957.1,1518205803.1,1752683285.4,1148010591.6,1477572001.5,1902310526.1,840530449.3,2168980907.2,-28338181.5,-91450721.8,-73831695.9,136774985.2,-24371516.8,,,,,,,,,,
EMU,Euro area,,,,,,,,,,,,,,,,,,,,,,,,,,,,,,,,,,,,,,,,,,,,,,,,,,,,,,,,,,,,,
ERI,Eritrea,,-14201583.7,-20607309.7,-16795791.5,-13835508.2,-14121074.7,-19837741.8,-53408609.4,-58144426.3,10151223.4,-8258201.8,46332791.9,97529498.5,40397961.1,31197372.6,58849850.5,47378146.6,83580205.3,73339867.6,103261853.4,50250512.2,108238364.1,67276618.2,33319232.4,6931240.6,7222000.1,26598044.9,,,,,,,,,,,,,,,,,,,,,,,,,,,,,,,,,,
ESP,Spain,,,,,,,,,,,,,,,,,,,,,,,,,,,,,,,,,,,,,,,,,,,,,,,,,,,,,,,,,,,,,
EST,Estonia,,,,,,,,,,,,,,,,,,,,,,,,,,,,,,,,,,,,,,,,,,,,,,,,,,,,,,,,,,,,,
ETH,Ethiopia,,1137140989.0,1860042029.3,2158934430.8,2865641733.7,2360142336.1,2767773030.4,1688107457.3,1446320377.0,1059266988.3,1008812689.7,1067068156.7,343748334.7,335422245.2,327492207.8,376835431.3,272914025.7,204389977.5,594171846.8,433515606.8,121805417.3,153874385.8,75021010.1,104088791.7,210473094.5,188094127.3,200440823.8,340534487.1,183522293.8,144830046.2,277494059.6,400263944.9,343115820.3,421953173.9,394682138.2,530598112.1,511431667.0,785379741.6,1345047875.6,893794786.6,66687750.7,95223166.9,47282336.7,40559537.0,63209132.3,64817371.7,23354178.5,26265161.4,25806520.9,35942963.0,19618516.9,,,,,,,,,,
EUU,European Union,,,,,,,,,,,,,,,,,,,,,,,,,,,,,,,,,,,,,,,,,,,,,,,,,,,,,,,,,,,,,
FCS,Fragile and conflict affected situations,,,,,,,,,,,,,,,,,,,,,,,,,,,,,,,,,,,,,,,,,,,,,,,,,,,,,,,,,,,,,
FIN,Finland,,,,,,,,,,,,,,,,,,,,,,,,,,,,,,,,,,,,,,,,,,,,,,,,,,,,,,,,,,,,,
FJI,Fiji,,-8606773.6,8546213.4,38738416.6,67633858.8,5426137.7,50870098.3,44758358.8,67077854.3,55352434.6,28514047.7,9658983.4,14068923.5,13314313.2,12751378.5,5522080.1,5457650.6,4975154.3,1424394.2,-6299029.1,-10396208.0,-18316750.3,-8392215.8,-2536243.1,-10849702.0,-15659224.4,-34115586.6,-24104643.3,-15566423.0,-25097505.9,-22876543.7,-9232975.1,9820261.4,-736378.7,-470524.4,-8221657.2,8173416.1,33319438.5,46860070.0,67827886.9,39200089.5,14119101.4,2386555.9,11353690.4,11868172.4,10797819.4,11316945.0,7764695.8,658890.0,2346168.5,1559600.0,,,,,,,,,,
FRA,France,,,,,,,,,,,,,,,,,,,,,,,,,,,,,,,,,,,,,,,,,,,,,,,,,,,,,,,,,,,,,
FRO,Faroe Islands,,,,,,,,,,,,,,,,,,,,,,,,,,,,,,,,,,,,,,,,,,,,,,,,,,,,,,,,,,,,,
FSM,"Micronesia, Fed. Sts.",,,,,,,,,,,,,,,,,,,,,,,,,,,,,,,,,,,,,,,,,,,,,,,,,,,,,,,,,,,,,
GAB,Gabon,,400328320.0,485759022.0,850221886.0,65589756.0,147674292.7,170445288.0,250264371.5,41623073.0,53088878.7,35585468.9,-35049947.5,-2071103123.8,-463782515.8,4965275.4,-18444813.3,29266775.6,-113362757.5,-156107414.2,-216906507.2,-139730214.6,-203203945.3,-58015798.6,-16649989.0,9165173.0,132043931.3,69915249.5,60133869.5,24998466.8,99669971.7,140725416.1,104949017.0,122637778.1,112647850.9,56447764.0,38139567.9,24049313.8,6548431.4,9406504.3,26598714.5,16241021.9,32497000.1,31537345.6,23465821.0,34227217.6,74704925.2,5684775.4,8127306.1,9597627.8,4761604.4,7285657.6,,,,,,,,,,
GBR,United Kingdom,,,,,,,,,,,,,,,,,,,,,,,,,,,,,,,,,,,,,,,,,,,,,,,,,,,,,,,,,,,,,
GEO,Georgia,,344347698.7,259261280.5,315366711.4,253265527.7,334789150.3,363126144.4,270391663.7,383585049.2,276124098.5,330017022.0,356738838.7,184983691.9,14295793.3,-46023175.2,-3694097.8,-30416494.9,14902661.6,60024384.3,67071952.1,-3371850.6,52505500.2,85817357.9,93659878.1,91092610.8,97881541.7,93705749.7,124425946.3,,,,,,,,,,,,,,,,,,,,,,,,,,,,,,,,,
GHA,Ghana,,-120548881.3,-152659310.8,142259706.8,162210265.4,810029627.9,1007404034.6,1094412139.8,1145296794.9,937818460.6,923868128.3,670846746.0,536833886.2,375597104.1,319989393.6,357563404.3,305053294.3,237520201.2,178724788.6,308835987.1,180518879.7,176932399.2,297991045.5,332446656.8,415170965.2,311918663.3,244336921.1,299125103.6,308512079.1,353724019.5,314105619.4,306091808.9,301391574.6,257916377.5,221506155.4,93495899.6,43797199.4,62208047.0,57527167.1,78614448.0,184715625.1,100908415.8,52693705.2,70413706.9,19435388.2,11705469.5,952583.7,22395284.4,36757709.2,26549162.4,29319560.3,,,,,,,,,,
GIB,Gibraltar,,,,,,,,,,,,,,,,,,,,,,,,,,,,,,,,,,,,,,,,,,,,,,,,,,,,,,,,,,,,,
GIN,Guinea,,367240788.6,132589089.4,16355961.0,73728846.0,161841761.0,154861782.0,263871285.0,11381607.2,-89162161.4,-22587933.5,-21761248.8,-4284988.2,12531969.3,8632867.0,175735407.5,-46588799.3,4836118.4,4261048.3,42141199.5,-29997127.9,23621040.3,68986109.6,157841642.3,66841617.1,69333595.6,136761671.4,228237723.3,159457277.1,153896481.3,118344931.6,192070905.3,167285022.4,71082245.7,147824194.4,46027095.6,-7073323.7,31281163.3,21644113.5,52698313.1,692276.9,34034118.5,27579639.2,-15326700.6,29067092.0,53461652.8,86595500.9,43160064.3,69290472.2,80207770.8,78885085.4,,,,,,,,,,
GMB,"Gambia, The",,23840522.6,42540453.8,118576771.8,1207144.8,23701235.7,3782082.7,18418303.7,1316974.2,6122711.1,21145348.2,19653544.4,25650813.9,19799731.1,34661302.4,38545101.3,34245226.0,28609109.5,44145411.5,14403780.9,8275504.2,10596794.7,1649636.8,10514806.0,43520575.3,7825003.1,7414303.6,11376519.3,41158398.3,17119065.0,10873140.5,17635430.3,13732248.2,30572735.5,31790533.4,13471883.6,10498859.1,6606108.1,13891910.6,31888586.8,29540796.6,20285330.1,14946983.0,9148731.7,2303556.5,2427128.0,3287533.4,1490163.7,2367194.3,81150.1,710100.0,,,,,,,,,,
GNB,Guinea-Bissau,,55209649.2,72160003.6,41463270.4,419682.3,22908006.4,-1736570.9,345903.5,-2994069.2,6321097.3,-646852.4,10507482.6,8478423.2,12502288.2,6953778.5,14569929.5,29902120.4,19848998.0,6206079.5,1940373.7,11257000.0,-577731.9,12676505.2,26206960.6,22746735.5,12759665.3,22877940.3,21974194.3,35267246.2,38339926.2,34234378.7,35161407.2,45126124.1,32157590.3,22959878.5,38614974.3,24878240.7,17186841.4,17375166.1,23212659.6,53911383.6,8951935.7,16222999.7,5232297.4,6777570.4,8359188.2,,,,,,,,,,,,,,,
GNQ,Equatorial Guinea,,,,,,,,,,,,,,,,,,,,,,,,,,,,,,,,,,,,,,,,,,,,,,,,,,,,,,,,,,,,,
GRC,Greece,,,,,,,,,,,,,,,,,,,,,,,,,,,,,,,,,,,,,,,,,,,,,,,,,,,,,,,,,,,,,
GRD,Grenada,,16927621.7,30332631.5,-5930083.9,8383022.4,38819767.0,23288955.7,22045224.1,2404624.2,-4386073.5,10357094.5,16393376.4,25880875.3,17017647.1,19645939.0,33166097.1,6673695.4,4448203.1,4008430.8,15697714.1,13423368.0,5446107.9,-1767031.8,9775539.7,4369219.6,956026.8,7351851.5,2676363.0,6034130.0,3834796.9,13159067.6,5379956.6,7331055.2,8655097.5,4864528.8,3020895.2,3393253.3,15669399.4,9119135.1,5762541.6,692849.9,636070.8,4600292.4,2346554.1,767300.5,1464832.1,601972.3,195524.1,-185336.7,213394.4,262000.0,,,,,,,,,,
GRL,Greenland,,,,,,,,,,,,,,,,,,,,,,,,,,,,,,,,,,,,,,,,,,,,,,,,,,,,,,,,,,,,,
GTM,Guatemala,,-280887677.7,65435063.6,-291210682.6,-101387632.3,547848564.3,-22018648.8,371432444.7,276035049.2,114101867.6,615100223.0,537471360.2,136011367.0,389536647.8,347107327.6,-55662308.5,21503190.4,-12459306.4,163574170.5,32745406.9,80029586.1,149210439.8,117256553.2,67846798.8,11458346.8,-24905769.7,79270178.1,-48391780.0,-80323108.1,39775064.4,64886519.1,11721997.0,90199712.0,-14815071.0,101186580.4,133531139.0,93929590.2,90045120.2,151906027.4,171177813.3,113823863.3,129121000.0,92032000.0,65791528.1,32460186.3,28925000.0,28529000.0,26219000.0,17632000.0,14797000.0,15770000.0,,,,,,,,,,
GUM,Guam,,,,,,,,,,,,,,,,,,,,,,,,,,,,,,,,,,,,,,,,,,,,,,,,,,,,,,,,,,,,,
GUY,Guyana,,51980487.3,83529409.3,53382115.3,28799564.4,45267379.1,145033824.8,178817515.4,159969007.3,167720951.0,107142987.7,96434919.9,122345851.2,84793763.7,94524113.7,88463270.0,47359729.0,42574337.9,17024834.5,46679365.8,41822823.8,19289176.8,10047844.1,18257934.7,32992759.4,5028657.5,-1187070.7,28853800.0,24372145.0,66469363.6,106992255.9,31806717.9,15721388.5,24264835.2,34417052.4,51688325.0,18006966.5,40287563.3,57325892.8,111673527.9,66770532.7,45980193.7,37292848.0,21338686.7,28646993.3,59885130.5,27553592.1,6713131.3,9660461.1,14055597.8,12490979.2,,,,,,,,,,
HIC,High income,,,,,,,,,,,,,,,,,,,,,,,,,,,,,,,,,,,,,,,,,,,,,,,,,,,,,,,,,,,,,
HKG,"Hong Kong SAR, China",,,,,,,,,,,,,,,,,,,,,,,,,,,,,,,,,,,,,,,,,,,,,,,,,,,,,,,,,,,,,
HND,Honduras,,452814819.8,254415439.3,196601687.7,166321411.8,386087033.5,357750971.2,450342256.1,439523169.1,500086473.3,392733400.5,144655619.7,379125358.4,82372986.1,122730045.1,153567073.5,229725674.6,99119471.1,79327482.7,207501723.2,68950395.1,274231312.8,-32770557.5,316627407.1,-30693211.5,10120079.5,70764214.3,212602946.0,213090225.1,109827876.0,211001744.5,75023183.6,144423212.1,117127609.2,96540342.7,233500053.7,225307619.8,170774421.2,165553152.2,173180081.8,134076808.6,90019813.1,116804024.6,76533805.2,64010361.9,100630341.5,42272000.0,14659000.0,15375000.0,16908000.0,36264000.0,,,,,,,,,,
HPC,Heavily indebted poor countries (HIPC),,,,,,,,,,,,,,,,,,,,,,,,,,,,,,,,,,,,,,,,,,,,,,,,,,,,,,,,,,,,,
HRV,Croatia,,,,,,,,,,,,,,,,,,,,,,,,,,,,,,,,,,,,,,,,,,,,,,,,,,,,,,,,,,,,,
HTI,Haiti,,-2007000.0,34993680.0,10650808.6,34878382.8,146147903.1,391745509.3,392055405.8,357782038.5,354817614.3,165122961.4,185494548.0,263499016.7,73703625.8,49714589.3,43866344.0,-36050917.9,14909802.5,-3928098.1,1066295.8,31652110.0,58471683.2,77021913.3,80400783.2,91797697.1,64591358.9,-2842172.1,-2819208.0,-2186468.3,30797324.1,28853294.6,13258700.9,33441667.8,73942164.9,32927300.9,56986657.8,51455374.7,38005428.8,45317767.6,40376812.4,24349135.0,31201575.4,41612770.4,45519041.4,34191008.1,18743000.0,65621387.5,-322000.0,2272000.0,9000.0,-170000.0,,,,,,,,,,
HUN,Hungary,,,,,,,,,,,,,,,,,,,,,,,,,,,,,,,,,,,,,,,,,,,,,,,,,,,,,,,,,,,,,
IBD,IBRD only,,,,,,,,,,,,,,,,,,,,,,,,,,,,,,,,,,,,,,,,,,,,,,,,,,,,,,,,,,,,,
IBT,IDA & IBRD total,,,,,,,,,,,,,,,,,,,,,,,,,,,,,,,,,,,,,,,,,,,,,,,,,,,,,,,,,,,,,
IDA,IDA total,,,,,,,,,,,,,,,,,,,,,,,,,,,,,,,,,,,,,,,,,,,,,,,,,,,,,,,,,,,,,
IDB,IDA blend,,,,,,,,,,,,,,,,,,,,,,,,,,,,,,,,,,,,,,,,,,,,,,,,,,,,,,,,,,,,,
IDN,Indonesia,,-938087674.2,1401340157.0,-904990553.7,-472101229.7,725884284.3,-1837345809.2,-1007992545.9,-1926323591.4,-1344278627.9,1406455726.0,32575796.1,-1109215999.0,-3012369483.5,-1541186707.9,-963701205.6,-2673181132.6,-843335865.7,-317978076.9,423688301.7,1787396002.9,3377677037.5,2742701535.5,521418351.7,-753792485.5,1115511883.0,1620942263.9,2343004254.2,3095171133.9,3241243208.2,2403862940.8,2926166700.7,2851159741.9,2507705078.1,1006964673.1,973968234.8,1365443807.1,1173119905.2,1060067079.5,965987491.0,796281979.8,545785125.8,719963072.8,744490907.4,831827993.0,507048273.8,409452748.8,466274707.4,353937683.9,248983874.2,354091041.3,,,,,,,,,,
IDX,IDA only,,,,,,,,,,,,,,,,,,,,,,,,,,,,,,,,,,,,,,,,,,,,,,,,,,,,,,,,,,,,,
IMN,Isle of Man,,,,,,,,,,,,,,,,,,,,,,,,,,,,,,,,,,,,,,,,,,,,,,,,,,,,,,,,,,,,,
IND,India,,3290469609.8,3422331037.0,2451515436.9,1978250656.3,1434250564.9,2042380895.2,1297750751.3,1504979458.2,2720097582.7,5220610987.2,3033805045.3,2873683644.6,2300931212.6,1143100738.8,1123641884.4,-510645355.8,-5224113329.7,-3820534505.1,362353940.2,53297961.4,1208003026.0,1158679801.4,-197632372.8,418409037.2,-743500896.0,1187438422.8,1953670448.0,2760173239.0,3088099735.8,2457652592.3,2629665595.6,2748108754.3,2406701036.7,1261746961.6,1298531198.6,1202953021.3,1007044347.7,1200822026.3,764767128.1,815607754.3,574781542.3,508604731.4,685357133.9,1042927590.1,1255169225.9,838202023.8,623842867.5,512286010.7,633013603.2,1428584094.5,,,,,,,,,,
INX,Not classified,,,,,,,,,,,,,,,,,,,,,,,,,,,,,,,,,,,,,,,,,,,,,,,,,,,,,,,,,,,,,
IRL,Ireland,,,,,,,,,,,,,,,,,,,,,,,,,,,,,,,,,,,,,,,,,,,,,,,,,,,,,,,,,,,,,
IRN,"Iran, Islamic Rep.",,-85835056.8,-93084504.8,-87669073.9,-161644538.3,-239571800.3,-232903949.2,-246792560.0,-163769293.8,-393031478.8,-202456327.4,-169291068.0,-43229254.0,23411382.8,219774607.9,358641837.8,91736285.1,264312389.3,76820659.6,67740260.2,-1274025402.9,-2090416743.5,-800862502.6,-4046005746.8,-3736439310.5,-3103366048.5,-1566461018.3,86225054.6,48735589.4,-89373437.9,-55222136.3,-106441770.5,-88060084.9,-83614275.3,-137979358.1,-66320717.0,-71229777.5,-68689905.9,-70494373.5,-75382904.4,-85233704.6,,,,,,,,,,,,,,,,,,,,
IRQ,Iraq,,,,,,,,,,,,,,,,,,,,,,,,,,,,,,,,,,,,,,,,,,,,,,,,,,,,,,,,,,,,,
ISL,Iceland,,,,,,,,,,,,,,,,,,,,,,,,,,,,,,,,,,,,,,,,,,,,,,,,,,,,,,,,,,,,,
ISR,Israel,,,,,,,,,,,,,,,,,,,,,,,,,,,,,,,,,,,,,,,,,,,,,,,,,,,,,,,,,,,,,
ITA,Italy,,,,,,,,,,,,,,,,,,,,,,,,,,,,,,,,,,,,,,,,,,,,,,,,,,,,,,,,,,,,,
JAM,Jamaica,,-54490420.0,41824320.1,-50198802.6,51341364.9,178111600.9,117438380.9,156302886.2,-9546046.7,218834600.8,863487609.2,96930953.3,13066671.1,34647348.1,-9601506.0,-141845433.7,-84676390.2,-112199496.0,60723667.2,-107671605.1,37061046.4,-109570383.4,-124808422.1,-238202966.6,-174042448.5,-63432350.1,-132193809.7,-32128306.9,-54419523.5,204475473.2,52612336.4,93387122.6,85915674.6,108216133.5,-20759949.6,249688558.8,281770054.4,305947669.5,396135893.7,340716621.4,280526302.6,110545976.4,110275009.4,40345246.0,194050169.7,42286415.7,33476688.5,37488530.1,11474355.8,24789645.3,11622068.5,,,,,,,,,,
JOR,Jordan,,1133135249.0,770198827.4,437657814.7,636119745.8,205767053.9,142755546.2,383830163.0,156397983.6,-222369358.6,164396231.5,360429316.3,-2115479920.5,-201717260.9,-59179026.6,-44029958.9,-200754072.6,-227110823.1,62980530.8,333602906.5,-62156120.8,215188875.6,159727756.3,229859482.1,404773452.4,481227967.3,114332214.0,66902430.6,187110525.6,417157521.0,234384605.0,341842605.1,-38710624.7,149476028.3,188705238.0,219649359.8,107343244.1,209381288.6,295942788.0,305643604.3,272479927.2,163045136.0,114083640.5,123953313.8,88451179.7,68811506.0,35508513.3,31108052.7,29991752.8,14041023.9,7743485.2,,,,,,,,,,
JPN,Japan,,,,,,,,,,,,,,,,,,,,,,,,,,,,,,,,,,,,,,,,,,,,,,,,,,,,,,,,,,,,,
KAZ,Kazakhstan,,-745958782.5,8964735.7,350184025.1,1293895239.3,1048724925.6,417045096.4,440931318.1,509179844.9,793812900.0,1244283568.3,586817659.4,25634024.6,-118523890.0,-24734338.4,-820260817.7,73925581.6,151550066.1,9721220.5,32541924.9,34587860.1,231904712.2,345853009.5,443552456.8,333578540.0,394470176.2,441803370.4,170256261.3,10226941.3,,,,,,,,,,,,,,,,,,,,,,,,,,,,,,,,
KEN,Kenya,,3431989423.2,3090014259.1,2894783334.5,2175796307.2,1505174651.0,2026613332.8,880228895.0,641795099.3,761026555.9,268548794.5,273317941.4,69525328.3,16196640.0,-124341637.9,-212364705.6,58799962.6,-71817751.2,46456393.8,556206.2,3875112.6,-130988335.5,-56211013.5,-68791954.9,59047341.9,274203283.4,-7731430.8,150302621.5,153778209.2,273969794.8,223273299.0,384316277.2,238233192.4,227696122.3,193972742.9,135154031.4,312559203.2,190710197.9,279359863.7,203191096.6,202343802.4,190484996.6,151806849.5,124330078.1,134513451.4,86464320.0,67846066.9,77620117.8,49137120.8,36742323.9,29863953.4,,,,,,,,,,
KGZ,Kyrgyz Republic,,68057101.4,48012434.1,204467972.8,256813448.3,242179372.7,444283602.1,343219281.8,305360511.0,170660920.9,113154541.4,339645996.1,17766557.8,41051319.4,65371795.6,61694007.1,80308748.5,64058820.2,71205687.3,91372334.6,135755256.5,180001033.9,143946730.1,132011269.7,136971069.0,118836118.8,118064536.5,71794702.6,3793499.6,,,,,,,,,,,,,,,,,,,,,,,,,,,,,,,,
KHM,Cambodia,,603707246.5,534883277.9,518348219.0,406791388.0,538836602.8,583265582.8,533071789.9,821408158.8,396065906.5,312880364.9,183049069.8,326056571.2,99884893.7,124227444.5,147033822.7,163123839.8,168353915.5,146150994.8,91138742.6,78633043.7,42757199.6,55218907.8,39378000.0,74956000.0,62633000.0,58026000.0,5365000.0,,,,,,,,,,,,,,,,,,,,,,,,,,,,,,,,,
KIR,Kiribati,,,,,,,,,,,,,,,,,,,,,,,,,,,,,,,,,,,,,,,,,,,,,,,,,,,,,,,,,,,,,
KNA,St. Kitts and Nevis,,,,,,,,,,,-8821000.0,-9756000.0,-9854000.0,-3907000.0,7483000.0,-5984000.0,-3312000.0,28716000.0,18118000.0,13978000.0,3011000.0,5532000.0,8381000.0,32852000.0,9700000.0,1775000.0,2383000.0,2816000.0,834000.0,3387000.0,6226000.0,7129000.0,6120000.0,2760000.0,3600000.0,1921000.0,1734000.0,,,,,,,,,,,,,,,,,,,,,,,,
KOR,"Korea, Rep.",,,,,,,,,,,,,,,,,,,,,,,,,,,,,,,,,,,,,,,,,,,,,,,,,,,,,,,,,,,,,
KWT,Kuwait,,,,,,,,,,,,,,,,,,,,,,,,,,,,,,,,,,,,,,,,,,,,,,,,,,,,,,,,,,,,,
LAC,Latin America & Caribbean (excluding high income),,606988323.600001,6317272246.6,8363884044.1,5291664398.9,6511477648.1,11992786389.8,9665870816.5,12411243365.7,4107437341.8,20973247689.5,16541442532.1,6275600662.2,-1394403976.2,-7328197722.5,-3673795481.5,-3999801996.6,-862515700.5,464799425.0,4922910309.6,-625460523.2,2181046032.0,8146239552.8,-4646285207.8,-7948159206.7,11053493300.7,-1449384510.8,3168576154.9,1228905024.9,2736213066.1,6397938060.6,3678320453.9,3451308360.0,3684686464.5,5668536306.8,5123391905.4,5294075784.8,4348173630.3,5016901805.3,5001931184.0,4144945128.1,2131578865.3,2655769187.9,2186069272.5,1898217412.2,2773185178.9,2100549075.3,1246070575.9,1075467052.7,813631043.6,913201877.5,,,,,,,,,,
LAO,Lao PDR,,974406329.5,819055957.0,461009715.0,450560106.9,627383809.6,468030876.5,553507901.6,317911835.9,361227462.6,201932022.0,230885832.8,182141949.0,224809658.1,149599923.6,170594290.2,197074346.2,100228472.5,76918128.6,135330542.6,59238225.9,61128917.5,86849734.2,128924685.1,136167447.6,75363059.7,43014835.8,53799920.9,48913677.1,100753233.2,146379887.7,171443147.3,189623151.2,163010397.9,164749659.5,36461068.5,104272850.5,57730031.9,53884413.8,54334534.6,54225169.1,45663351.9,58091096.0,54024611.5,10343735.1,4886275.3,4379527.1,6030010.2,2490351.6,6215558.6,4514459.3,,,,,,,,,,
LBN,Lebanon,,-61216545.6,-50478825.5,177232658.7,-43191429.3,-122302560.9,152026447.5,-185572200.8,-22477799.6,-107971571.4,-59242555.7,-102989235.6,85476959.2,-62134394.0,25433504.8,-13293356.1,-7639826.4,614353908.4,53495146.2,133625061.8,163584521.0,186153125.2,270505001.7,162252705.8,235083226.2,121308306.2,-13419198.1,15321481.3,-29224547.1,-26673678.8,-22216293.5,-23447374.8,-27262651.0,-35760748.6,-30054564.5,6825631.4,23218133.2,41961290.6,6160679.3,26300910.4,42554019.6,54288873.1,12104347.0,-57360.7,-5948608.3,-3427074.5,-9208338.8,-8468015.5,-6787595.4,1317748.3,9779058.4,,,,,,,,,,
LBR,Liberia,,132872173.4,137394921.1,107318939.2,102031417.6,148557817.8,76511940.5,30714052.1,19631711.3,17785963.1,-3743001.6,-4299509.1,-37465370.7,-260718524.8,-16185.5,0.0,0.0,0.0,0.0,0.0,0.0,0.0,,,0.0,,-13600297.6,19804504.0,26503.9,-13005149.3,-1000816.2,-1106516.2,4833772.1,27201781.6,29669416.5,53625768.8,91414034.9,60556366.3,52094993.6,74620342.3,60904214.2,64518410.0,25511547.9,16170325.1,20847773.1,11014768.0,467146.0,586298.5,3541117.9,4538243.1,2524994.9,,,,,,,,,,
LBY,Libya,,,,,,,,,,,,,,,,,,,,,,,,,,,,,,,,,,,,,,,,,,,,,,,,,,,,,,,,,,,,,
LCA,St. Lucia,,17570530.1,-11073096.6,-3808947.0,-11107824.2,858881.1,9232547.7,-3536403.1,-9373906.0,614775.1,18403283.5,6466561.2,-4476091.5,9965791.4,10086497.2,3096298.1,20155740.6,10021693.4,10920131.4,-4652449.1,5064912.3,-4443776.6,4284813.3,3503571.1,11444553.1,5372303.7,3122357.4,10036452.9,21596121.1,5012436.3,5612960.8,11898519.7,11957045.9,10188165.8,2223076.9,3260987.6,3346401.6,2048624.2,1903278.6,1843656.7,,,,,,,,,,,,,,,,,,,,,
LCN,Latin America & Caribbean,,,,,,,,,,,,,,,,,,,,,,,,,,,,,,,,,,,,,,,,,,,,,,,,,,,,,,,,,,,,,
LDC,Least developed countries: UN classification,,,,,,,,,,,,,,,,,,,,,,,,,,,,,,,,,,,,,,,,,,,,,,,,,,,,,,,,,,,,,
LIC,Low income,,5935386885.2,5352505637.4,5945812823.2,5873439037.3,6469882766.0,6562958709.8,5658756614.8,5606399187.6,4473610231.1,4262597283.8,4185476677.7,2942155204.9,2848908141.6,2245318623.7,2518641643.1,2486376647.2,1848857418.8,2199863872.7,1823252869.3,1057732169.8,1265993241.6,1319716822.6,1548638878.9,1908414873.0,1778170650.4,1801871328.1,2303746163.7,2038712751.1,3300584633.4,1469536465.4,3283317083.9,3367068699.4,5506294084.0,4243955710.4,4019470368.5,2088407532.8,5547312093.9,4863635144.1,4157171804.7,3007321612.6,2009916664.8,1515701010.9,1235990575.0,1296926709.8,1179317710.9,1031742920.9,273609098.9,331486541.1,295420424.8,265085093.5,,,,,,,,,,
LIE,Liechtenstein,,,,,,,,,,,,,,,,,,,,,,,,,,,,,,,,,,,,,,,,,,,,,,,,,,,,,,,,,,,,,
LKA,Sri Lanka,,445022991.7,278965694.8,644495695.5,622937703.8,554749821.8,1309148629.3,1459793695.9,1558888564.9,1036653033.4,1314158267.0,614312994.1,270386180.2,299584083.7,317196580.4,496219687.8,289894604.8,494124321.2,225994480.9,197273500.3,130122068.0,152856992.9,372683038.6,310425757.3,319791551.5,323211818.8,274301731.3,267445373.5,187515932.8,531996318.2,307097144.5,296891497.5,284592960.3,248367639.8,347896891.2,296079026.1,259639803.5,240209051.2,174394447.7,162101466.4,134232599.7,102689291.4,155496554.1,101884201.6,84026026.1,60983718.5,42547512.8,34868324.8,39038858.4,55502853.9,39664002.4,,,,,,,,,,
LMC,Lower middle income,,39575860809.9,36725905409.9,36860429079.8,44271138490.3,31625132217.2,30485247616.4,28311646324.6,21735489796.5,19880471879.8,23456482286.0,24377517431.2,11458211340.8,11152619802.9,-9370823364.4,-763810274.100001,-964882650.100001,-4048888482.2,-2282317113.0,971808685.1,592790348.8,4115350099.6,4070729496.5,3462594686.5,6174773738.1,3931353349.2,8590383878.1,9930884192.6,11993734114.8,10919979342.2,11146264288.4,11524701261.7,10202003527.5,9620098459.7,8703570662.1,7852259272.1,9608104049.2,9515707752.8,10228052393.3,9217641699.8,8364262599.5,7018982945.0,6130299473.3,6793916100.6,4686284487.6,6470442883.9,3348817428.9,2304297626.7,1708845255.1,3057619796.0,2419694534.0,,,,,,,,,,
LMY,Low & middle income,,44940261640.2,50251942609.2,53525555670.7,56556090277.8,45267588298.1,54366721414.9,44305761742.9,41058672153.7,33327029947.6,56082947011.8,52457085872.7,18513462679.1,11089533906.4,-40058742650.9,-22220618550.4,-8945837178.0,-13080661038.1,-6846199301.9,9142487065.1,4034043674.7,15082132028.6,20761876202.2,9589746585.2,3999582514.1,23134989722.2,13256099745.9,23657320352.3,21124328777.6,25684002407.2,26018944425.3,23037573825.0,20721458411.0,22846834599.4,20758596626.0,19316120866.7,20410560287.1,21933298357.7,23121358019.9,21707246656.6,18370197767.4,13435895484.1,11978381220.0,11422700186.9,9329091223.1,11409116165.0,7157743281.6,4861577858.5,3796328920.2,4714370930.5,4179376433.3,,,,,,,,,,
LSO,Lesotho,,54121071.6,862856.9,5890779.9,19762242.2,43856190.0,45982171.3,11740572.0,35450506.8,23781477.2,26487863.0,17110425.9,28391325.9,12725965.6,1203742.5,-10685966.4,3349479.5,-17470391.6,7052381.6,-12203029.8,41058625.9,17087053.3,15129667.2,23369630.5,27611612.7,36647400.9,50303590.9,54986359.0,63846238.8,45075031.5,43116174.7,38512985.8,26360441.9,28533385.2,16125031.1,35121848.4,25115281.5,9749737.6,40185096.5,12583377.5,7625760.0,9674067.2,6513889.3,7598596.9,2464145.1,4462314.1,1964253.5,-93895.4,-37527.6,164836.1,-55000.0,,,,,,,,,,
LTE,Late-demographic dividend,,,,,,,,,,,,,,,,,,,,,,,,,,,,,,,,,,,,,,,,,,,,,,,,,,,,,,,,,,,,,
LTU,Lithuania,,,,,,,,,,,,,,,,,,,,,,,,,,,,,,,,,,,,,,,,,,,,,,,,,,,,,,,,,,,,,
LUX,Luxembourg,,,,,,,,,,,,,,,,,,,,,,,,,,,,,,,,,,,,,,,,,,,,,,,,,,,,,,,,,,,,,
LVA,Latvia,,,,,,,,,,,,,,,,,,,,,,,,,,,,,,,,,,,,,,,,,,,,,,,,,,,,,,,,,,,,,
MAC,"Macao SAR, China",,,,,,,,,,,,,,,,,,,,,,,,,,,,,,,,,,,,,,,,,,,,,,,,,,,,,,,,,,,,,
MAF,St. Martin (French part),,,,,,,,,,,,,,,,,,,,,,,,,,,,,,,,,,,,,,,,,,,,,,,,,,,,,,,,,,,,,
MAR,Morocco,,825135206.9,-421068543.6,1229176710.6,1088656881.8,986324065.5,1486189012.8,1682608056.8,958403453.7,1675169672.8,1123059984.4,1881752124.3,1750709152.1,816221717.3,445337516.0,252873595.7,-546180395.6,-833727308.4,-741971689.6,-529855727.1,-295324635.3,-81580392.9,-438795782.5,-620375889.4,151619555.3,-118345273.1,-330846142.8,233685951.6,469187140.0,600732541.4,788536309.8,688155851.6,456857969.1,468175807.1,381442158.2,391434306.4,645712560.6,469218001.7,726333889.3,1099334422.0,752089312.0,331037845.0,338891266.6,648154981.5,85020826.2,268191829.8,62386207.6,20772360.2,51571633.7,81883352.6,120181185.3,,,,,,,,,,
MCO,Monaco,,,,,,,,,,,,,,,,,,,,,,,,,,,,,,,,,,,,,,,,,,,,,,,,,,,,,,,,,,,,,
MDA,Moldova,,28656089.0,47983409.1,134054572.4,169006725.4,101438145.6,105108523.7,28734143.8,85834344.2,27343812.3,43527211.2,-3957009.6,17513890.5,13374855.1,-13478802.6,-9229116.6,-49785404.4,-16868788.7,-4707706.6,-1777874.9,24783134.8,66588291.7,40942839.8,191707183.1,37742610.5,99944760.3,128992455.4,65351445.0,30127661.8,,,,,,,,,,,,,,,,,,,,,,,,,,,,,,,,
MDG,Madagascar,,243853372.3,185184503.7,110225681.8,64662537.2,165585932.0,186545069.8,109753032.5,97323881.8,114458766.7,160125936.0,97011080.9,326917400.6,252055474.0,246686378.3,211571241.0,429313170.8,181541116.3,156788551.8,108135382.4,76657027.9,65325273.5,45049365.4,218727802.5,98022989.9,70184574.2,56061803.3,97251359.2,84821532.6,160922790.3,158956077.7,129490884.7,165825295.9,273174338.7,157029746.3,137316944.2,160146843.3,218384391.1,198784177.5,189094481.5,192805821.1,137151341.9,23216881.0,-83333290.8,25788810.3,111529153.9,239516965.8,-10592466.4,14018948.2,-1007433.8,9544944.8,,,,,,,,,,
MDV,Maldives,,158412431.5,379157818.8,34922543.4,261021760.6,-37785473.7,-92955097.2,159678394.8,67568495.5,39769342.6,79057333.8,85876681.9,33239372.4,37089018.2,33070027.8,16454960.6,29180415.1,25845646.3,13393201.7,3856948.0,-376555.8,732296.2,3040962.3,2489599.9,13321797.4,26054232.2,9422692.6,17409156.4,12622650.0,12156945.6,5850820.5,-579783.6,1317357.3,48716.7,7322197.0,515088.4,-2045593.9,3844506.9,6402104.8,10108914.4,17899311.2,2907314.6,2101710.6,,,,,,,,,,,,,,,,,,
MEA,Middle East & North Africa,,,,,,,,,,,,,,,,,,,,,,,,,,,,,,,,,,,,,,,,,,,,,,,,,,,,,,,,,,,,,
MEX,Mexico,,820262245.4,-275697536.5,1343788344.7,-1481680.9,291487572.4,1200902001.2,1550534663.5,1780133764.2,2789129194.7,4875001936.2,6921110366.7,1355373402.9,376633202.0,-8525751360.3,-160824875.2,-1411687377.6,-326788043.2,74422884.8,-787017285.4,-538236460.9,-1668739147.9,-823613744.9,-4594003786.8,-7667854497.0,10333013730.7,-603579331.9,-19461295.7,599263625.0,1384579254.3,4172772477.8,928413550.5,1004914180.7,878414987.4,1475806130.6,818341447.6,837876544.7,-285300690.1,1616230407.2,927798747.9,791227426.4,284131211.1,257432084.8,322938235.7,323397640.3,402870867.3,339734381.7,186220747.4,156730580.5,89309543.2,153219895.9,,,,,,,,,,
MHL,Marshall Islands,,,,,,,,,,,,,,,,,,,,,,,,,,,,,,,,,,,,,,,,,,,,,,,,,,,,,,,,,,,,,
MIC,Middle income,,39004874755.0,44899436971.8,47579742847.5,50682651240.5,38797705532.1,47803762705.1,38647005128.1,35452272966.1,28853419716.5,51820349728.0,48271609195.0,15571307474.2,8240625764.8,-42304061274.6,-24739260193.5,-11432213825.2,-14929518456.9,-9046063174.6,7319234195.8,2976311504.9,13816138787.0,19442159379.6,8041107706.3,2091167641.1,21356819071.8,11454228417.8,21353574188.6,19085616026.5,22383417773.8,24549407959.9,19754256741.1,17354389711.6,17340540515.4,16514640915.6,15296650498.2,18322152754.3,16385986263.8,18257722875.8,17550074851.9,15362876154.8,11425978819.3,10462680209.1,10186709611.9,8032164513.3,10229798454.1,6126000360.7,4587968759.6,3464842379.1,4418950505.7,3914291339.8,,,,,,,,,,
MKD,North Macedonia,,206227387.6,615551.3,22451703.9,98633774.5,124530304.4,275023771.9,112825440.0,51342478.6,51758841.0,100513558.2,22339245.4,63904992.0,-147453012.2,4497970.8,37860607.4,70954287.4,42596857.1,29029432.3,-16139022.2,73072169.7,108892397.2,98395768.1,80020355.0,86915874.4,55171817.9,-18407522.5,-4275000.0,,,,,,,,,,,,,,,,,,,,,,,,,,,,,,,,,
MLI,Mali,,559744065.5,373183285.5,207998025.3,173266665.0,389121148.9,239494525.7,290262222.9,242961741.8,252991566.0,271642876.0,446366701.9,191076063.8,214088280.0,85702276.7,225212178.5,110934299.9,159443000.5,103738367.2,66918354.9,49783388.4,57133233.5,52450627.0,85687104.4,109442958.4,138113481.3,69320307.9,58479521.5,133323890.3,129114504.0,142727868.9,150946945.6,112200610.7,125081375.6,161525385.8,87104317.1,103517896.1,124231547.8,110865959.6,104969307.5,81078515.5,64023064.2,38126295.4,52350120.9,28729213.9,26389155.2,26897235.9,8972745.1,14402617.3,5546029.0,22614325.4,,,,,,,,,,
MLT,Malta,,,,,,,,,,,,,,,,,,,,,,,,,,,,,,,,,,,,,,,,,,,,,,,,,,,,,,,,,,,,,
MMR,Myanmar,,529886195.8,280515584.5,1227309.4,-13879382.9,357792547.4,768020850.9,1217896810.5,837893862.9,767667144.7,689741090.9,151042915.9,148331067.2,158355468.5,133799256.1,94917266.7,35335905.8,8739696.2,12014477.6,23223111.4,46732939.7,17696476.3,64612412.9,5787544.1,-1705158.0,-135839480.4,15205114.8,9532683.3,48789623.0,26668164.3,84980895.3,174055617.4,269297901.0,259790370.5,296637316.9,251824671.4,253146842.2,262589120.3,312814620.4,303217423.4,220116439.2,343670054.4,221587587.7,95746461.0,32175301.1,32693346.4,42416954.4,61378868.2,29276864.1,6261710.5,-3067198.7,,,,,,,,,,
MNA,Middle East & North Africa (excluding high income),,5178753546.9,4407328910.7,6530923323.1,13131919215.2,7540897750.3,1377302360.7,9450338331.8,4094766374.6,938013030.2,1281380594.8,2552129482.6,-1576266038.6,1411945242.0,-11067012122.5,-2310448364.1,-2788121021.7,-1418870201.5,-1557840532.6,-1215921526.5,-2471685710.7,-2374172927.3,-1262621094.2,-4239087823.5,-1584725525.5,-1365803932.2,179896277.8,1666162260.4,1903624157.9,3779566819.4,1464239236.3,2618757616.6,2073387185.3,3717312319.7,3232892795.5,4269090091.9,2593858925.1,5608900494.3,5306915786.0,4763804979.4,4679890154.0,3018190914.7,3019957717.6,3867914495.9,1585078399.3,2918190231.5,349224324.1,243614467.1,222419958.0,402779150.0,193623671.3,,,,,,,,,,
MNE,Montenegro,,116457688.0,167473332.5,132820390.7,-10430423.7,144796649.1,-1155062.6,-6086920.9,139174757.7,220099801.0,2379196.2,37209406.1,31555537.1,-42890561.5,59518244.2,,,,,,,,,,,,,,,,,,,,,,,,,,,,,,,,,,,,,,,,,,,,,,
MNG,Mongolia,,303573303.1,450168619.7,847981282.6,340315075.6,185901348.6,183513271.2,467607721.1,133317446.1,30777314.0,22549697.6,153052094.0,37813805.5,58886227.0,51490936.9,74426313.3,115451110.5,-154295467.4,49822272.7,55586326.6,55961069.7,101098935.6,90565331.7,105010385.9,63323284.5,82077512.2,65747527.5,68542643.1,86025957.1,,,,,,,,,,,,,,,,,,,,,,,,,,,,,,,,
MNP,Northern Mariana Islands,,,,,,,,,,,,,,,,,,,,,,,,,,,,,,,,,,,,,,,,,,,,,,,,,,,,,,,,,,,,,
MOZ,Mozambique,,145080515.6,390641579.5,532916577.8,578937886.7,719919903.7,1134848981.8,1076500792.3,878913249.3,559234767.9,367145254.3,494747839.2,391891903.4,321068827.3,328791137.1,308208913.2,307984829.2,186006230.8,256948447.4,107892648.2,97575209.5,91421799.4,183082008.5,214564914.0,229464916.4,174445018.3,181726074.4,162476261.9,185823810.2,112009384.1,193979962.3,164949546.9,152871203.6,283981277.9,325427403.5,317403846.7,621232019.0,,,,,,,,,,,,,,,,,,,,,,,,
MRT,Mauritania,,100812818.0,-66014.2,26770141.4,216855302.9,540978966.4,157762158.5,214116204.9,407405343.5,238402394.2,346014281.4,357458385.1,264693461.1,94262607.6,132994294.4,97762581.3,90763778.5,82402348.9,83299858.5,41915887.7,71629779.8,-9069305.0,-4436007.7,27324127.0,58223439.7,41959745.9,81686652.4,91451231.0,82703470.0,25630577.6,55227882.6,38215605.8,68796109.8,101473000.8,130074159.7,54082477.2,76954836.7,135532381.9,182425859.9,144857223.8,106875262.1,68798271.1,87691130.6,38360880.9,112981398.4,13804259.1,46513143.4,28020757.1,1732058.6,7586585.6,2940537.6,,,,,,,,,,
MUS,Mauritius,,,,,,,,,,,,,,,,,,,,,,,,,,,,,,,,,,,,,,,,,,,,,,,,,,,,,,,,,,,,,
MWI,Malawi,,110779423.8,180789362.9,207349887.1,101797150.3,146959389.3,189967038.7,211831799.9,96558801.2,194076792.9,68083807.7,84886414.6,48980857.6,50184687.3,63851829.3,53312159.5,61868088.1,63471281.9,60981750.5,91407657.8,85816732.8,109989145.7,120098562.3,131092919.8,124666151.6,172474808.7,73288115.0,162780038.1,107855139.9,130118776.0,67473682.6,94162793.5,78041233.3,82921655.9,111396685.3,51475278.7,90967718.3,54851155.2,58407108.6,80196447.4,99880513.1,64886191.3,58698071.4,52321752.9,29060542.6,43773791.2,24325372.9,23721883.7,26245725.1,25371811.6,48376844.4,,,,,,,,,,
MYS,Malaysia,,,,,,,,,,,,,,,,,,,,,,,,,,,,,,,,,,,,,,,,,,,,,,,,,,,,,,,,,,,,,
NAC,North America,,,,,,,,,,,,,,,,,,,,,,,,,,,,,,,,,,,,,,,,,,,,,,,,,,,,,,,,,,,,,
NAM,Namibia,,,,,,,,,,,,,,,,,,,,,,,,,,,,,,,,,,,,,,,,,,,,,,,,,,,,,,,,,,,,,
NCL,New Caledonia,,,,,,,,,,,,,,,,,,,,,,,,,,,,,,,,,,,,,,,,,,,,,,,,,,,,,,,,,,,,,
NER,Niger,,336149127.8,206349451.4,271510870.2,327051822.1,348145025.8,85706422.5,201018888.9,148334392.5,720822199.4,269836934.1,189806244.8,81979003.4,72673981.6,74381161.9,105867342.5,104034727.5,102975941.6,122693598.5,64025630.2,64083184.9,49553164.9,72515915.7,64438855.1,31861673.8,21228131.6,58466318.2,68583527.6,75670620.7,23174273.1,81730459.4,84800107.6,132814103.1,132337890.8,84897028.5,66598657.3,52324073.4,100495519.1,41006371.9,135045530.1,73666456.4,66183567.2,39336420.0,25420527.3,22569640.4,24952106.6,18196595.2,10621181.7,8583739.5,8239484.4,11424495.4,,,,,,,,,,
NGA,Nigeria,,2377985636.1,1759107596.2,2188963758.5,954567655.3,1321548665.2,1272191961.8,1144365101.1,675333446.7,817968530.4,807067407.0,203682283.8,52586723.0,194009313.1,-4124310555.6,-3339512088.0,-790715695.6,-845015561.3,-426569388.3,-1464522370.4,-761507648.0,-275169283.1,-466925566.2,-261732029.3,-132851274.1,-35214726.3,167872643.4,53798481.9,198123719.5,43929792.9,-132284028.5,460336056.8,71951670.5,377699119.8,617066671.0,-109935605.5,305284738.8,689708406.7,168932869.2,87239673.7,76741130.5,59390763.8,34084194.4,37428167.8,48624268.7,63110561.7,62377093.9,38511364.1,99510415.4,76647955.2,29426475.6,,,,,,,,,,
NIC,Nicaragua,,330142245.9,425202676.4,416970445.8,277559597.7,313844316.7,338896473.6,234345732.3,204468946.3,176424562.3,211760644.6,230706616.9,132757364.9,170242777.9,191907429.9,166206042.5,273544457.5,170347049.1,145824870.9,178010425.2,157360814.5,229697538.1,185252173.1,447997739.3,115890215.4,180328654.0,252438789.3,41828665.1,238309659.2,-18794041.8,549762217.0,569387418.1,407618610.8,464690825.7,765846408.9,677657214.4,341161949.7,259890410.8,240637341.6,334964768.8,258352069.8,101528238.0,78568001.3,66289683.5,64615538.5,51344369.4,56891435.4,28590561.8,11138221.3,27271916.8,32686874.3,,,,,,,,,,
NLD,Netherlands,,,,,,,,,,,,,,,,,,,,,,,,,,,,,,,,,,,,,,,,,,,,,,,,,,,,,,,,,,,,,
NOR,Norway,,,,,,,,,,,,,,,,,,,,,,,,,,,,,,,,,,,,,,,,,,,,,,,,,,,,,,,,,,,,,
NPL,Nepal,,902037737.6,781034415.6,419104151.8,227709591.6,242943465.2,75240500.7,100844956.9,-15397844.5,20131892.8,-21858290.0,-24593901.0,-21731796.8,29388324.6,59012004.8,111625405.4,29590051.3,62965044.9,260819.3,50266519.7,93686683.9,109919263.8,133442989.0,197477290.1,116925587.2,124071853.7,155847500.3,153499330.3,101720201.5,136979055.5,148113514.8,222733482.7,137387693.9,127313044.9,115731220.3,88485357.2,78355047.6,68193320.4,66572291.5,65189157.6,47609877.1,31262488.1,30674484.8,27262962.3,10654147.7,7884862.5,6975155.0,7604202.1,3605076.0,5148179.5,-1938806.5,,,,,,,,,,
NRU,Nauru,,,,,,,,,,,,,,,,,,,,,,,,,,,,,,,,,,,,,,,,,,,,,,,,,,,,,,,,,,,,,
NZL,New Zealand,,,,,,,,,,,,,,,,,,,,,,,,,,,,,,,,,,,,,,,,,,,,,,,,,,,,,,,,,,,,,
OED,OECD members,,,,,,,,,,,,,,,,,,,,,,,,,,,,,,,,,,,,,,,,,,,,,,,,,,,,,,,,,,,,,
OMN,Oman,,,,,,,,,,,,,,,,,,,,,,,,,,,,,,,,,,,,,,,,,,,,,,,,,,,,,,,,,,,,,
OSS,Other small states,,,,,,,,,,,,,,,,,,,,,,,,,,,,,,,,,,,,,,,,,,,,,,,,,,,,,,,,,,,,,
PAK,Pakistan,,5962752878.7,6668222934.2,3220213065.2,2736744487.5,2275608259.5,2298956453.5,627185987.2,1170535212.6,1184305034.5,401866225.5,2657800397.4,1263241591.5,1360217126.8,1531189637.9,647933612.8,-607572242.0,-9806455.1,1102930025.3,772599305.4,444141900.7,895644719.0,858788007.1,734808619.1,1099766214.2,895966259.6,1210115258.8,1064427121.8,1012653661.1,1008865530.4,946711275.5,941791437.6,944285418.5,404116699.7,391336280.5,464534547.1,444994181.8,349570504.4,654883481.1,541502250.7,539168466.2,571605844.8,454657521.4,507505691.9,734460120.7,712005606.5,677293008.0,257821451.4,192015096.8,656932259.6,382025204.6,,,,,,,,,,
PAN,Panama,,,,,,,,,,,,,,,,,,,,,,,,,,,,,,,,,,,,,,,,,,,,,,,,,,,,,,,,,,,,,
PER,Peru,,473948676.7,-447635138.5,-3264591763.9,190209775.9,716347438.1,-182774134.2,-2066886762.1,-578884309.9,120995844.6,-1383894315.2,-591421287.5,-106101156.8,-2319373898.8,-396971783.7,-1936450167.5,121753770.8,-18434880.2,255742169.2,743421275.3,616180306.1,468774549.2,71930831.6,402305475.7,-247770004.1,300559690.4,152180903.3,658618360.4,292838911.8,-21304831.3,105587243.3,125505204.6,133362076.0,285982695.8,146847275.0,175300398.1,408855456.0,406382492.0,155641202.0,111330417.6,383801755.0,194409704.4,327985848.7,590372138.0,207856290.0,333213768.2,214905616.1,72489879.8,68937538.4,59975821.9,50336059.9,,,,,,,,,,
PHL,Philippines,,1387975868.1,873386267.9,120797594.7,-30517430.3,880064222.1,187488427.9,-1386237012.6,-320621770.8,-298499469.9,-447176178.5,627462955.5,-870092290.5,-13408561.1,-16603371.1,-643364304.7,-521989383.1,89449073.7,-60992341.1,-288001617.3,-45971241.8,-87876138.6,16105070.3,85826346.8,-56921264.8,-789754553.4,177527164.6,979846624.4,1468432391.6,796469996.0,933704794.8,873878231.9,703085809.6,732271554.1,194215176.9,357562597.2,748159881.5,1014782668.3,468725502.5,777391131.9,366593181.7,426587394.2,279175174.2,262284953.2,211746263.6,184513519.7,136912422.6,72259106.6,164460226.0,81938148.7,59699863.6,,,,,,,,,,
PLW,Palau,,,,,,,,,,,,,,,,,,,,,,,,,,,,,,,,,,,,,,,,,,,,,,,,,,,,,,,,,,,,,
PNG,Papua New Guinea,,803627866.4,450273712.3,180634743.7,242721472.5,175685277.0,175811053.6,162211319.3,91094419.1,22593458.1,-23201257.8,-21865619.9,-130974968.1,-126598902.1,-63136978.7,-31529994.6,-48862208.8,-49163841.1,-39476216.2,69254978.1,31934071.2,-14049177.7,4494105.1,-14152194.2,41094547.0,39511081.8,-18588125.6,25252345.1,36106976.1,128788191.7,186258929.3,108614766.4,36671933.7,109109828.3,60555567.8,42546712.0,83023692.9,95843801.7,41829763.0,34052120.9,34068486.6,12816262.0,12981165.1,16797783.5,7942262.0,16073958.7,14958647.5,16307445.2,23927334.5,20323331.3,5410000.0,,,,,,,,,,
POL,Poland,,,,,,,,,,,,,,,,,,,,,,,,,,,,,,,,,,,,,,,,,,,,,,,,,,,,,,,,,,,,,
PRE,Pre-demographic dividend,,,,,,,,,,,,,,,,,,,,,,,,,,,,,,,,,,,,,,,,,,,,,,,,,,,,,,,,,,,,,
PRI,Puerto Rico,,,,,,,,,,,,,,,,,,,,,,,,,,,,,,,,,,,,,,,,,,,,,,,,,,,,,,,,,,,,,
PRK,"Korea, Dem. People's Rep.",,,,,,,,,,,,,,,,,,,,,,,,,,,,,,,,,,,,,,,,,,,,,,,,,,,,,,,,,,,,,
PRT,Portugal,,,,,,,,,,,,,,,,,,,,,,,,,,,,,,,,,,,,,,,,,,,,,,,,,,,,,,,,,,,,,
PRY,Paraguay,,300083316.5,290475926.1,294506268.9,245593992.4,45464612.9,103579595.6,41016831.8,23524237.0,-47109950.2,82999180.2,27100813.1,-13309730.9,-65563210.6,-41859978.6,-53771591.1,-64319237.0,32789501.9,-3626850.5,6140347.4,84972375.7,61676848.0,67166065.6,141176532.1,59038918.0,74646051.3,24998777.9,-53106982.4,-94039511.4,32009328.4,-44087470.4,85026173.0,-14526970.7,60849280.6,97147464.9,166836870.5,134241214.4,155296975.0,103427044.7,58074344.7,35227913.1,29922213.3,67770288.4,96377889.3,50531528.1,26143874.3,23310426.0,18037441.8,16117858.3,15948649.8,9911633.8,,,,,,,,,,
PSE,West Bank and Gaza,,,,,,,,,,,,,,,,,,,,,,,,,,,,,,,,,,,,,,,,,,,,,,,,,,,,,,,,,,,,,
PSS,Pacific island small states,,,,,,,,,,,,,,,,,,,,,,,,,,,,,,,,,,,,,,,,,,,,,,,,,,,,,,,,,,,,,
PST,Post-demographic dividend,,,,,,,,,,,,,,,,,,,,,,,,,,,,,,,,,,,,,,,,,,,,,,,,,,,,,,,,,,,,,
PYF,French Polynesia,,,,,,,,,,,,,,,,,,,,,,,,,,,,,,,,,,,,,,,,,,,,,,,,,,,,,,,,,,,,,
QAT,Qatar,,,,,,,,,,,,,,,,,,,,,,,,,,,,,,,,,,,,,,,,,,,,,,,,,,,,,,,,,,,,,
ROU,Romania,,,,,,,,,,,,,,,,,,,,,,,,,,,,,,,,,,,,,,,,,,,,,,,,,,,,,,,,,,,,,
RUS,Russian Federation,,-187171534.8,-198720982.6,-986062731.4,-335934008.3,-387502568.2,-660984006.1,-824579247.9,-936858232.8,-2310590557.3,223970090.3,-1075131795.1,-1236675736.8,-1244784186.4,-25419887560.5,-18253591042.6,-3287015654.0,-2329719892.6,-1955845545.2,-983853226.8,-430357562.0,575104517.1,924461233.9,2645450976.7,3569956965.6,64302266.8,597101695.2,845212048.9,1817117411.0,,,,,,,,,,,,,,,,,,,,,,,,,,,,,,,,
RWA,Rwanda,,618928596.9,462779498.0,379555754.7,345145724.9,358280479.0,271615857.6,113059249.7,80788060.1,218105713.2,54846538.2,67535295.6,105928580.5,66099578.7,46738155.5,71614164.1,86613233.6,19320577.7,75559814.3,53192588.3,26708382.1,69756257.2,78858690.7,61782927.4,53297075.0,42602832.9,20364431.5,49470283.6,71916081.0,78301846.8,55209549.4,52984045.5,78538900.3,92419810.6,70940238.9,71198580.0,38360136.6,34403761.2,25616956.0,24520331.1,26973861.3,32837467.3,20544940.4,23620240.7,23232690.8,11937798.2,4217394.0,2518000.0,751488.3,21134.5,-26220.6,,,,,,,,,,
SAS,South Asia,,15754671244.3,17461157622.9,10687055539.6,8333944253.0,5962620777.2,7279069865.6,5022005314.0,6013816306.8,5393110266.1,7437094666.5,7354207967.1,5620961499.0,4546195227.0,3868472234.4,2899207771.2,-35977512.9,-4015702741.2,-2074527088.1,1821158417.1,1079899315.5,2751581442.1,2965098727.5,1317020924.6,2543600593.0,894898577.7,3561815359.7,3859567507.5,4716335506.6,5280783230.1,4680154255.8,5034748438.5,4907122743.3,3957528919.7,2957812360.4,2706207541.3,2482097974.2,2101314290.0,2850729907.3,2018132457.1,2107565084.2,1772029664.9,1474127299.0,1597325705.3,2144826550.0,2473805356.9,2080080063.3,1215192849.3,833781955.6,1359646896.2,1848334495.0,,,,,,,,,,
SAU,Saudi Arabia,,,,,,,,,,,,,,,,,,,,,,,,,,,,,,,,,,,,,,,,,,,,,,,,,,,,,,,,,,,,,
SDN,Sudan,,713624557.4,-96278322.6,-50321748.5,-89711753.6,126868177.6,103438343.1,212307698.8,41135861.1,373489995.1,535027867.9,605097853.6,453549670.1,503815381.9,339480734.4,96675162.9,140107620.6,-6733390.7,23768380.8,312341266.8,174567979.7,-5705624.3,-1261803.0,4531464.2,17293662.9,36221010.0,9214478.0,91377916.7,93586150.4,116265606.5,170468968.1,191166968.0,323971391.5,159680122.9,63639703.7,84814838.1,241147878.8,438763924.0,766252794.9,392663282.4,519843072.9,565095129.5,413819799.9,261327259.0,311707961.2,197312399.8,223425599.4,40427884.3,20690838.6,13636316.4,29406624.9,,,,,,,,,,
SEN,Senegal,,1037777809.2,725273453.9,645864009.4,972462770.9,493339393.4,257731246.1,263147857.5,532048950.1,288791139.9,271052426.5,334469350.2,433025503.1,404557265.8,149499396.6,252588832.6,123750069.7,78422138.0,89147028.5,78856275.6,6766140.6,-44972350.2,136485890.0,142672040.9,122913727.6,42694941.8,23396006.4,129825886.9,252137248.6,63485931.2,105948268.5,294995127.8,165635516.9,297641875.2,299432367.2,135879673.1,167757520.1,281858293.0,273110852.5,241033103.7,167188161.9,78432003.8,68804232.2,55149621.1,24149505.3,39272955.8,23358605.6,26115493.7,5630033.5,12636758.4,5570183.4,,,,,,,,,,
SGP,Singapore,,,,,,,,,,,,,,,,,,,,,,,,,,,,,,,,,,,,,,,,,,,,,,,,,,,,,,,,,,,,,
SLB,Solomon Islands,,2466546.2,1287039.8,5953285.6,6580637.5,-5314800.7,-6451427.4,-6367013.4,-6515000.4,-6502985.3,-8408592.0,-6288593.3,-10597415.7,-3387859.2,1676151.3,2105543.7,-422000.0,-2489177.9,9529650.2,16629178.8,610245.1,5184489.7,14305640.6,4315244.4,3291065.3,3483994.4,-95630.9,711387.5,1113370.4,-2108981.8,1322495.3,3237594.7,10047091.3,14338842.9,6908070.0,6570866.1,6173253.6,6823196.2,4104972.0,4170832.6,3943716.1,2464149.1,452483.0,,,,,,,,,,,,,,,,,,
SLE,Sierra Leone,,75922945.6,29003881.0,47923337.4,33718023.1,65740209.2,39445769.2,78180659.4,100174107.9,88052903.2,61640689.5,58824991.9,66520761.7,26370529.6,19136220.4,45930793.4,74159145.9,35526378.8,57818954.8,74147334.2,67409173.7,8540986.2,32837763.5,33202491.1,28157957.8,67128073.2,49917809.5,94660536.6,40923338.2,13759399.4,12525248.2,1486935.4,23083421.2,8770925.3,15184007.9,20311998.7,10214272.1,13385958.1,55851482.9,17612252.3,38075495.9,9118840.0,6642246.7,6996681.7,7452849.6,13391535.2,6589832.5,7120703.3,4921801.0,49359232.2,3166900.9,,,,,,,,,,
SLV,El Salvador,,29653432.4,147904418.8,-26456413.5,-43870450.8,-6780794.7,-81623698.5,42576953.4,105089498.2,151285088.3,319299217.0,354389560.5,282229661.2,-25138812.3,41708376.9,107322030.4,-146226789.4,81038628.8,222724750.1,203572582.3,75247637.1,54061488.1,56873192.7,160698685.5,275129662.3,71086472.0,104526049.1,310871105.7,106765120.4,87764222.8,-22001411.5,99841238.9,58935713.9,49494064.2,79660649.1,112459833.5,181554958.8,296349004.4,196934821.3,206666467.2,72006071.6,76009655.3,67479778.2,54215303.7,51197582.8,61110331.2,29348687.8,19219810.7,13809503.1,5555118.2,4364427.8,,,,,,,,,,
SMR,San Marino,,,,,,,,,,,,,,,,,,,,,,,,,,,,,,,,,,,,,,,,,,,,,,,,,,,,,,,,,,,,,
SOM,Somalia,,0.0,0.0,0.0,0.0,0.0,0.0,0.0,,0.0,0.0,0.0,0.0,0.0,0.0,0.0,0.0,0.0,5250000.0,0.0,0.0,0.0,,,1451.8,,,,81085.7,12474924.3,50612955.3,64107149.3,59133188.9,72945076.7,101533444.5,106555067.8,139912124.5,153240654.4,138516219.0,257092901.0,69834130.7,87876685.3,72710381.8,54694818.2,55730972.0,35010358.1,32337608.7,11636657.7,13083712.0,5126835.2,4088851.1,,,,,,,,,,
SRB,Serbia,,337481075.9,190712681.3,421059839.0,391079456.3,656153244.3,1105973633.9,513748741.1,521608244.0,776089961.2,867292435.8,673036740.2,111094944.5,97880000.4,127670649.6,268268877.2,508143780.4,239304562.3,442945609.5,156577815.6,187000000.0,0.0,0.0,,,,,-12406000.0,-231821522.4,-740429881.7,-321603480.3,-119668822.9,-381547593.6,-241021471.3,-75908626.3,-32398842.4,191132874.5,150277896.9,67742643.2,419334102.0,370039413.5,249323498.6,220543502.7,241405302.3,409038549.3,317501006.2,226616220.4,247610168.5,166212110.7,81315541.9,44613788.3,,,,,,,,,,
SSA,Sub-Saharan Africa (excluding high income),,17766569470.2,13863915190.7,20669168925.4,23174867314.7,15659121203.3,17971721534.1,15485646906.6,11760265982.6,12349675559.0,10380571634.2,8009658916.2,2721562219.8,4377547759.0,-1280215592.6,-158767673.6,2689380111.2,1614508568.1,2131491746.5,-31982815.3999997,688781510.8,402494448.0,808341176.3,1909129811.9,2276952494.3,2936584072.0,3666551885.9,4319617648.0,4710580451.7,4133054195.4,4588655088.2,5219367521.6,4519606093.1,5517454507.2,4923172940.0,3372044742.6,4663462749.4,5284575735.3,5514943742.2,4790727779.5,3534454275.1,3255200306.6,2318036635.7,1936706156.3,1808222211.1,1898004647.4,1494483113.5,854408155.7,722701073.0,1420798090.5,493179591.8,,,,,,,,,,
SSD,South Sudan,,,,,,,,,,,,,,,,,,,,,,,,,,,,,,,,,,,,,,,,,,,,,,,,,,,,,,,,,,,,,
SSF,Sub-Saharan Africa,,,,,,,,,,,,,,,,,,,,,,,,,,,,,,,,,,,,,,,,,,,,,,,,,,,,,,,,,,,,,
SST,Small states,,,,,,,,,,,,,,,,,,,,,,,,,,,,,,,,,,,,,,,,,,,,,,,,,,,,,,,,,,,,,
STP,Sao Tome and Principe,,-404379.3,2872403.1,10130463.2,8826863.6,14355601.4,28848870.1,11262640.9,-5758135.5,46483817.3,18574714.2,17095720.6,3523770.6,-68462.0,-1879441.6,1025294.1,10901386.4,1214106.7,1932160.4,6648387.0,7219079.0,13485422.1,4651442.5,3433427.9,9892802.3,12169097.2,13575197.3,13713031.7,22920377.3,29352157.0,14550120.5,15359150.3,10772797.8,9152344.2,10065920.9,7401182.6,8160333.9,7046365.6,8432348.1,6677163.7,8979940.4,4315101.3,7424976.3,1825044.5,,,,,,,,,,,,,,,,,
SUR,Suriname,,,,,,,,,,,,,,,,,,,,,,,,,,,,,,,,,,,,,,,,,,,,,,,,,,,,,,,,,,,,,
SVK,Slovak Republic,,,,,,,,,,,,,,,,,,,,,,,,,,,,,,,,,,,,,,,,,,,,,,,,,,,,,,,,,,,,,
SVN,Slovenia,,,,,,,,,,,,,,,,,,,,,,,,,,,,,,,,,,,,,,,,,,,,,,,,,,,,,,,,,,,,,
SWE,Sweden,,,,,,,,,,,,,,,,,,,,,,,,,,,,,,,,,,,,,,,,,,,,,,,,,,,,,,,,,,,,,
SWZ,Eswatini,,107794751.7,32376267.3,24697393.5,69590871.7,15396716.6,2491924.4,-6303155.4,-7133082.3,-20819214.0,-27355935.1,-18894880.7,9801615.5,24412683.4,3324102.1,49304728.1,18757402.8,-3960736.8,3166987.5,24034175.2,4417998.7,24711442.2,17690420.4,6927210.9,7255311.7,-5034841.8,-4223153.7,-945618.9,-6370081.5,6921793.0,-18638747.6,3436709.4,-5971196.7,2576945.6,9243340.9,3092685.0,10882928.0,16236977.7,29456545.5,15241015.2,21198050.5,36517676.8,44464044.0,9000591.8,10065676.3,2239766.6,1413163.8,10481392.0,1283031.7,-584096.8,2969200.0,,,,,,,,,,
SXM,Sint Maarten (Dutch part),,,,,,,,,,,,,,,,,,,,,,,,,,,,,,,,,,,,,,,,,,,,,,,,,,,,,,,,,,,,,
SYC,Seychelles,,,,,,,,,,,,,,,,,,,,,,,,,,,,,,,,,,,,,,,,,,,,,,,,,,,,,,,,,,,,,
SYR,Syrian Arab Republic,,0.0,42629739.4,0.0,0.0,0.0,0.0,0.0,0.0,-285751042.5,-219843284.4,-216110787.2,-273003632.1,,,,,,,,,,,,,,,,,,,,,,,,,,,,,,,,,,,,,,,,,,,,,,,,
TCA,Turks and Caicos Islands,,,,,,,,,,,,,,,,,,,,,,,,,,,,,,,,,,,,,,,,,,,,,,,,,,,,,,,,,,,,,
TCD,Chad,,-9890812.1,9535959.7,227506785.9,131932676.6,16855853.4,1764553.9,-30824261.9,38763835.1,201829055.9,322640441.7,-6720062.6,-7468617.2,16514594.5,78155233.5,119339259.6,98666141.1,145173363.3,95599983.7,45058251.1,32617604.6,82697149.0,38033023.7,74333486.2,94021628.9,57443688.1,63720604.5,53685162.9,67250052.1,86395497.2,91679087.2,76483158.8,58963231.6,39355016.8,28795911.3,5050094.8,10251932.0,11579532.0,1447819.4,3356892.7,2530280.4,12636857.2,24181584.8,31338032.0,4915458.7,72078061.5,14703747.9,10793103.8,597187.8,-347003.7,1238304.0,,,,,,,,,,
TEA,East Asia & Pacific (IDA & IBRD countries),,,,,,,,,,,,,,,,,,,,,,,,,,,,,,,,,,,,,,,,,,,,,,,,,,,,,,,,,,,,,
TEC,Europe & Central Asia (IDA & IBRD countries),,,,,,,,,,,,,,,,,,,,,,,,,,,,,,,,,,,,,,,,,,,,,,,,,,,,,,,,,,,,,
TGO,Togo,,91677197.3,60034501.1,127519190.2,362962256.5,162237447.6,168473116.3,126099865.4,113656010.3,20996880.8,62757151.2,-4902903.1,-137899225.7,-676655.2,30425419.6,1994256.6,6326023.6,3795267.5,9400436.4,19593142.7,14422159.4,17584409.2,53004648.0,34810134.6,80455152.0,19299863.3,33874580.2,13203477.4,39188466.6,51308959.5,62334319.9,38448245.8,89823957.4,25249037.1,27846777.3,17145914.6,26572385.6,53973214.6,8927441.1,-8291138.4,37491119.7,68039883.6,107818629.2,36158823.2,11739281.1,20300895.0,29560817.2,13163433.6,2547805.5,3576066.0,3390086.7,,,,,,,,,,
THA,Thailand,,-441849369.3,-578571387.2,-38963413.8,-31031174.0,-159581065.1,130469163.0,679963996.4,114598235.0,-286377334.1,-374527575.9,-392631771.0,-745441968.7,-904642080.0,-847600389.5,-1887137537.6,-2650592037.9,-4108935140.2,-4187172471.8,-179853149.5,489377824.2,2261054552.6,1094291296.6,5928235278.8,421612363.9,488227515.8,322890161.9,584738647.0,-286120655.1,156083419.3,96063361.8,52821845.2,-329362814.1,27670573.8,292429473.7,568401887.7,672313454.7,839910163.0,658229707.9,645331963.4,548025945.1,431322735.9,237532940.7,164632843.9,108828806.1,92982675.2,57690806.4,44575994.7,26117600.5,18619340.8,21200168.4,,,,,,,,,,
TJK,Tajikistan,,-7387423.1,55968042.7,95543242.8,112446218.8,153959045.2,20138214.3,7166251.5,23130567.2,165498281.7,214602925.3,167790850.6,304753719.9,221266582.8,104045723.2,61229736.9,60953425.9,46905572.4,-416353.3,37015448.5,27912000.0,45210702.5,12537007.8,4748000.0,36488000.0,27377000.0,177104000.0,7787000.0,9731000.0,,,,,,,,,,,,,,,,,,,,,,,,,,,,,,,,
TKM,Turkmenistan,,-16346564.5,-17367180.7,-17569324.5,6038974.4,-22287634.4,-12512202.2,9900099.4,8031152.8,-105453736.0,-97212054.9,-109591129.9,-94709796.6,-106661828.9,-150585919.0,-106712879.5,-82764748.9,-32000691.5,-80180288.0,62177833.3,333697914.0,288053634.4,99690593.7,99966227.4,-74459090.0,12752467.2,51227677.7,149057018.8,,,,,,,,,,,,,,,,,,,,,,,,,,,,,,,,,
TLA,Latin America & the Caribbean (IDA & IBRD countries),,,,,,,,,,,,,,,,,,,,,,,,,,,,,,,,,,,,,,,,,,,,,,,,,,,,,,,,,,,,,
TLS,Timor-Leste,,46417598.1,39294277.8,35468705.3,25111000.0,24029000.0,14997000.0,7452586.9,10000.0,,,,,,,,,,,,,,,,,,,,,,,,,,,,,,,,,,,,,,,,,,,,,,,,,,,,
TMN,Middle East & North Africa (IDA & IBRD countries),,,,,,,,,,,,,,,,,,,,,,,,,,,,,,,,,,,,,,,,,,,,,,,,,,,,,,,,,,,,,
TON,Tonga,,2180380.7,1187770.7,7259091.2,3597838.5,-1253177.6,1552928.2,-1950147.4,6619106.0,33662462.1,38101370.4,14170091.9,4795812.5,893256.2,-372572.3,869257.2,-2090668.6,8520732.7,3015050.0,799231.1,3016265.7,2472608.0,5132676.6,1934160.4,1693239.8,3773406.1,5588566.0,2168979.4,1184559.4,859238.0,2230520.5,841419.8,3963165.5,1910691.3,890856.0,892175.1,,,,,,,,,,,,,,,,,,,,,,,,,
TSA,South Asia (IDA & IBRD),,,,,,,,,,,,,,,,,,,,,,,,,,,,,,,,,,,,,,,,,,,,,,,,,,,,,,,,,,,,,
TSS,Sub-Saharan Africa (IDA & IBRD countries),,,,,,,,,,,,,,,,,,,,,,,,,,,,,,,,,,,,,,,,,,,,,,,,,,,,,,,,,,,,,
TTO,Trinidad and Tobago,,,,,,,,,,,,,,,,,,,,,,,,,,,,,,,,,,,,,,,,,,,,,,,,,,,,,,,,,,,,,
TUN,Tunisia,,1494635048.3,406653966.4,849332855.7,343426916.2,986253274.6,516792320.4,318133480.6,1139136606.6,1257535170.4,634183439.6,476274537.3,-133421746.6,21678674.4,-157822752.9,-11913802.9,130331832.1,325111736.1,302465117.1,423404708.5,46943131.3,139705755.1,-152384459.9,72548706.0,92557026.5,-27348489.9,251418915.4,374989697.3,278374466.4,519040072.1,341420551.2,328481666.7,208355002.7,131247652.1,185027612.7,219736661.1,325937898.6,237545843.0,279017653.2,247134382.7,248591732.1,187184591.2,169959569.1,311384803.7,130207151.9,103517287.0,77646137.7,93651974.1,95545978.6,57791683.9,40467141.0,,,,,,,,,,
TUR,Turkey,,147750535.1,941033072.8,925044168.4,765429623.2,904342418.1,2023388216.3,1985491139.5,1949662749.3,2563362747.9,4030328221.4,3006186205.2,2278511073.2,1601409965.6,720760981.5,-602241165.5,650152041.8,-516505516.4,407081962.5,251593628.4,306414072.6,-775924293.1,-735314691.5,-203709048.5,-843631379.7,-1182794307.2,-605512821.2,-739707319.0,-508972360.1,436408311.9,218872631.5,-554793353.7,503796009.2,479844042.0,628640232.5,423777651.5,1061007236.9,327387310.1,762546663.3,1142241186.1,1238454156.2,972454501.0,644309828.6,237291763.8,262790199.6,164699628.5,160684481.1,283091969.2,172593881.7,250966048.6,240628575.5,,,,,,,,,,
TUV,Tuvalu,,,,,,,,,,,,,,,,,,,,,,,,,,,,,,,,,,,,,,,,,,,,,,,,,,,,,,,,,,,,,
TZA,Tanzania,,725281976.5,797573311.8,1025190548.4,802656714.5,1113546752.5,1250829518.7,1044685251.4,811850356.8,550909164.4,1026680894.1,874661978.4,509498340.7,627154043.1,526140827.1,423962755.9,387988896.5,430887389.9,164020388.8,99586491.4,129253294.4,171412893.2,135330166.7,185201848.5,86494792.4,120578989.5,162443742.7,107523227.0,263142842.3,170196995.4,202467749.0,96455627.4,253706860.8,140891607.1,168598334.6,55179182.2,328081595.4,312650122.9,230726457.0,523819820.3,218433384.5,138621466.0,147766302.2,189556014.3,128729074.3,248547905.6,172572436.6,160696003.9,90446683.8,869032661.4,41654252.8,,,,,,,,,,
UGA,Uganda,,933761618.2,900128398.4,1154676928.5,737864642.1,836123823.0,410253888.1,585940728.1,521551712.6,299252306.6,449590660.6,445158630.9,225595695.9,424317690.0,177898721.5,129354002.9,175674602.6,297732065.8,124277435.0,322622528.5,193614410.6,114580686.1,108802960.0,232438973.2,176580942.0,174241819.2,196338052.0,314645545.8,210606037.2,143962621.5,210885901.0,236855466.1,91963396.5,238058152.8,121873929.2,142180645.8,76670054.7,68952802.1,58250296.4,57165493.4,6648048.8,81050159.8,7894974.5,9101957.1,25237119.9,10979178.2,4757620.1,3220814.8,9952982.3,12079417.7,15657863.4,,,,,,,,,,
UKR,Ukraine,,-489813703.0,-610115354.0,868782802.9,-432285044.2,868264346.3,2483450943.9,-2837092565.7,-725900278.9,-732425163.6,3766806326.8,5147894564.5,620087220.5,349991888.0,-238688876.1,-2119618.5,-385381545.7,-181324720.3,-260003689.3,228876771.6,-1063839550.0,292433162.8,257119551.6,6049902.2,237732233.3,384926662.7,137455429.8,307135923.6,99495279.3,,,,,,,,,,,,,,,,,,,,,,,,,,,,,,,,
UMC,Upper middle income,,-570986054.9,8173531561.9,10719313767.7,6411512750.2,7172573314.9,17318515088.7,10335358803.5,13716783169.6,8972947836.7,28363867442.0,23894091763.8,4113096133.4,-2911994038.1,-32933237910.2,-23975449919.4,-10467331175.1,-10880629974.7,-6763746061.6,6347425510.7,2383521156.1,9700788687.4,15371429883.1,4578513019.8,-4083606097.0,17425465722.6,2863844539.7,11422689996.0,7091881911.7,11463438431.6,13403143671.5,8229555479.4,7152386184.1,7720442055.7,7811070253.5,7444391226.1,8714048705.1,6870278511.0,8029670482.5,8332433152.1,6998613555.3,4406995874.3,4332380735.8,3392793511.3,3345880025.7,3759355570.2,2777182931.8,2283671132.9,1755997124.0,1361330709.7,1494596805.8,,,,,,,,,,
URY,Uruguay,,,,,,,,,,,,,,,,,,,,,,,,,,,,,,,,,,,,,,,,,,,,,,,,,,,,,,,,,,,,,
USA,United States,,,,,,,,,,,,,,,,,,,,,,,,,,,,,,,,,,,,,,,,,,,,,,,,,,,,,,,,,,,,,
UZB,Uzbekistan,,2335707302.7,1976929285.4,803632474.0,1034158835.0,884115216.8,521538294.7,534795414.9,347679307.0,301696075.2,183844103.3,241089832.5,37699788.4,8684850.1,-59734011.4,23453443.3,69999757.2,-50908515.1,-29835938.4,253795155.4,257566821.4,405876096.0,198372644.7,32486802.9,227387512.5,279861613.0,-40328074.8,455542221.3,60895029.5,,,,,,,,,,,,,,,,,,,,,,,,,,,,,,,,
VCT,St. Vincent and the Grenadines,,35660219.7,-1913216.6,-678020.0,-7952159.8,10514022.3,27637013.0,30502133.1,-3820221.7,14203230.5,62990439.5,6099403.7,26402758.9,8335424.3,6649440.9,4604257.3,2611916.4,-1904066.4,3029962.1,1612645.8,2816190.2,666101.0,14792908.3,4602796.4,3088772.4,-1237924.9,6556897.8,4215143.3,4504242.3,5939065.7,4749304.7,6066936.0,7158490.3,8663909.3,3565023.7,1724058.4,1519365.3,3705452.2,4012038.7,6638536.4,2757409.3,1055281.1,975160.0,854727.7,607458.1,658910.7,418322.3,2136787.2,15122.4,2970.9,,,,,,,,,,,
VEN,"Venezuela, RB",,0.0,-6558000.0,-89962500.0,-155220000.0,266144059.8,98695773.9,918628195.1,1995280322.6,965290565.5,787128525.8,586102616.9,166717875.0,-426779594.3,359315211.9,-362882495.1,-386694154.6,-585016685.3,-625113842.7,-890866692.8,174420367.5,320800682.1,1485074953.4,167179032.1,-122571501.8,235348655.0,440782061.7,92300351.2,788249132.1,829630843.4,1053485753.3,343824796.1,87553818.7,64576322.3,-56666189.6,-90382755.2,-115157471.3,-13849704.0,-13187034.2,-11561800.7,11579653.5,-42618205.4,-33047425.1,-63142249.5,-38511074.0,144477816.1,-3602382.8,14540517.1,58070925.7,6740286.7,4321364.6,,,,,,,,,,
VGB,British Virgin Islands,,,,,,,,,,,,,,,,,,,,,,,,,,,,,,,,,,,,,,,,,,,,,,,,,,,,,,,,,,,,,
VIR,Virgin Islands (U.S.),,,,,,,,,,,,,,,,,,,,,,,,,,,,,,,,,,,,,,,,,,,,,,,,,,,,,,,,,,,,,
VNM,Vietnam,,296341677.6,1396883157.7,2690868927.9,2857911848.3,2783105766.6,3947416393.5,3429727458.0,3673730170.0,3142162721.0,2973263864.1,3386634910.6,1566619996.2,1542514338.5,858921597.6,961773256.8,1281152752.0,1419084826.5,685138091.6,998376707.6,1049147757.1,825008377.9,1043952615.7,381021977.6,146493126.3,57516777.1,99381336.1,-140399043.8,246941838.0,-44346090.2,-86204962.1,-50330707.2,-1000000.0,-596000.0,4527000.0,6696000.0,2006000.0,9798000.0,17187000.0,19334000.0,,,,,,,,,,,,,,,,,,,,,
VUT,Vanuatu,,29353754.1,34374112.6,63660951.4,48275269.9,79820804.6,-4854989.1,9139228.7,1520198.7,721539.3,-309761.6,8132887.7,7607172.8,1814531.3,-2153888.6,-1083616.6,-1558661.1,-1044481.3,-373229.5,1987950.5,13358023.3,4999103.2,11662601.9,227316.2,272965.6,2605505.4,968611.6,2424684.8,3791939.4,11308379.6,5764960.1,5202835.6,2583785.0,3537347.3,1013651.4,993573.3,520347.9,-137624.5,1571109.7,-265099.7,,,,,,,,,,,,,,,,,,,,,
WLD,World,,,,,,,,,,,,,,,,,,,,,,,,,,,,,,,,,,,,,,,,,,,,,,,,,,,,,,,,,,,,,
WSM,Samoa,,-12021891.0,69204.8,2772628.8,-1316060.8,9536646.9,23136449.0,16314988.3,55702528.5,39810717.4,71610497.1,19201263.4,19578308.1,12574772.8,2397604.2,6106515.0,679371.8,822284.8,-744160.5,-198424.3,2457571.4,-3296344.6,-7064.8,-1331098.0,-1035929.7,3788565.0,6626184.9,21502902.2,9353198.5,21145237.8,12096295.3,2089369.6,1710083.7,3735482.2,-340295.7,-100742.8,5357100.8,3546695.9,6222595.4,4823808.6,10036963.6,11631998.5,7405043.6,5658737.9,5156340.0,4382167.6,258068.5,318608.4,,,2400000.0,,,,,,,,,,
XKX,Kosovo,,12036281.1,3887154.6,4222580.1,13879487.4,18390790.0,4349454.1,-6587675.3,-10104589.1,-10068000.0,-14270000.0,-207735732.2,,,,,,,,,,,,,,,,,,,,,,,,,,,,,,,,,,,,,,,,,,,,,,,,,
YEM,"Yemen, Rep.",,-6890728.4,-51671649.1,-62314688.6,-73767370.9,-221699487.1,172560486.9,19555691.0,1087855886.5,-73066232.2,143731596.8,192873149.8,152025837.8,278122972.1,252269661.3,171322127.2,52020813.3,55296824.7,56003807.0,56826442.3,56311617.8,160557003.0,112681906.5,92476346.2,110151666.7,60399967.6,73031150.6,68491502.5,59262944.1,46759955.4,64928745.0,143080571.5,51617528.1,94315840.1,161639348.3,202213187.5,229903285.0,454431939.7,302635729.7,308445719.3,478675027.3,138317129.0,147799038.5,79878387.6,98069743.0,54617154.0,72250390.6,46428835.8,43680202.0,9276502.0,,,,,,,,,,,
ZAF,South Africa,,505920916.7,351394922.4,2482134471.4,459089877.0,613531131.0,855698419.0,518608599.3,1416640899.0,489223436.2,873105329.5,-3848111.1,-20184415.3,-25650235.6,22682891.5,32584903.0,45221853.2,75743768.8,17297662.7,14691000.0,101182737.8,43323449.6,,,,,,,,,,,,,,,,,,,,,,,,,,,,,,,,,,,,,,,
ZMB,Zambia,,1018967518.7,542370222.3,339221692.8,620856021.4,547102008.3,500107016.6,99590511.2,473673405.7,590747865.9,105365277.1,34660929.1,50536723.4,85351847.5,115061507.6,63112990.5,121804813.9,-4851096.2,93695091.0,118955134.7,172032663.4,151070911.8,-14357029.3,116877716.4,109024391.7,149648412.2,136033526.2,139687689.9,150663905.3,110430839.1,73949856.9,72647863.0,163599482.2,99529439.2,195277837.5,218914566.3,148983730.4,96151996.5,171201839.4,179827256.1,274014922.1,304789387.6,92531727.1,70538674.7,130332495.8,147400736.7,130169299.1,88971504.8,41230827.0,25141309.8,16030250.5,,,,,,,,,,
ZWE,Zimbabwe,,44870108.5,203803904.9,52865588.8,101133271.6,381564249.6,98761594.6,25192182.1,219296158.8,122805795.8,2235257.0,58449455.6,37802007.4,129700273.4,17347921.1,11090644.5,22205058.0,18386417.5,29609841.1,10640642.3,12430680.6,-7469257.3,34725214.4,57080200.8,75652392.1,71889143.0,195380918.5,350132678.9,375948896.0,141834818.9,81564650.2,78308649.2,110161653.2,175897366.4,118836051.4,117904391.4,143891345.0,119367180.9,163513879.2,82453351.8,72053048.7,-4540453.5,-4069102.0,-4075674.0,-5122028.8,-5529423.4,-9332958.4,-9195734.8,-5140945.3,-4242919.5,-4587900.0,,,,,,,,,,
