economy,Country Name,YR2020,YR2019,YR2018,YR2017,YR2016,YR2015,YR2014,YR2013,YR2012,YR2011,YR2010,YR2009,YR2008,YR2007,YR2006,YR2005,YR2004,YR2003,YR2002,YR2001,YR2000,YR1999,YR1998,YR1997,YR1996,YR1995,YR1994,YR1993,YR1992,YR1991,YR1990,YR1989,YR1988,YR1987,YR1986,YR1985,YR1984,YR1983,YR1982,YR1981,YR1980,YR1979,YR1978,YR1977,YR1976,YR1975,YR1974,YR1973,YR1972,YR1971,YR1970,YR1969,YR1968,YR1967,YR1966,YR1965,YR1964,YR1963,YR1962,YR1961,YR1960
ABW,Aruba,,,,,,,,,,,,,,,,,,,,,,,,,,,,,,,,,,,,,,,,,,,,,,,,,,,,,,,,,,,,,
AFE,Africa Eastern and Southern,,,,,,,,,,,,,,,,,,,,,,,,,,,,,,,,,,,,,,,,,,,,,,,,,,,,,,,,,,,,,
AFG,Afghanistan,,,,,,,,,,,,,,,,,,,,,,,,,,,,,,,,,,,,,,,,,,,,,,,,,,,,,,,,,,,,,
AFW,Africa Western and Central,,,,,,,,,,,,,,,,,,,,,,,,,,,,,,,,,,,,,,,,,,,,,,,,,,,,,,,,,,,,,
AGO,Angola,,1323639000.0,2598310000.0,-1935120000.0,-2229180000.0,67645000.0,2402413000.0,1542367000.0,1426923000.0,266904000.0,950222000.0,-375504000.0,2712391000.0,1321079000.0,-1556122000.0,1573209000.0,862797000.0,485123000.0,-83589000.0,864000.0,-251024000.0,38973000.0,-141019000.0,386502000.0,101964000.0,116614000.0,222656000.0,610027000.0,454620000.0,18208000.0,566487000.0,337784000.0,,,,,,,,,,,,,,,,,,,,,,,,,,,,,
ALB,Albania,,-55096000.0,239606000.0,-43899000.0,11214000.0,443770000.0,-19446000.0,7384000.0,-62947000.0,53849000.0,346289000.0,301577000.0,432250000.0,-2572000.0,-3271000.0,-574000.0,-1851000.0,803000.0,-284000.0,-270000.0,-1017000.0,-1637000.0,-1771000.0,-1147000.0,4474000.0,-411000.0,-8084000.0,11131000.0,3165000.0,28378000.0,,,,,,,,,,,,,,,,,,,,,,,,,,,,,,,
AND,Andorra,,,,,,,,,,,,,,,,,,,,,,,,,,,,,,,,,,,,,,,,,,,,,,,,,,,,,,,,,,,,,
ARB,Arab World,,,,,,,,,,,,,,,,,,,,,,,,,,,,,,,,,,,,,,,,,,,,,,,,,,,,,,,,,,,,,
ARE,United Arab Emirates,,,,,,,,,,,,,,,,,,,,,,,,,,,,,,,,,,,,,,,,,,,,,,,,,,,,,,,,,,,,,
ARG,Argentina,,-11772389000.0,31690326000.0,21868937000.0,35290013000.0,1531667000.0,5212740000.0,-2005917000.0,-1356792000.0,-57308000.0,-3943539000.0,-3693470000.0,1009852000.0,3111394000.0,1981659000.0,1999237000.0,2004196000.0,-179390000.0,-16098000.0,-5036037000.0,8016759000.0,14955155000.0,9387664000.0,7084948000.0,9489021000.0,3374755000.0,2627138000.0,834195000.0,47389000.0,-227260000.0,-2072454000.0,-733357000.0,43042000.0,927795000.0,608859000.0,2532321000.0,43436000.0,1034035000.0,3645097000.0,724947000.0,1635064000.0,1996759000.0,1106723000.0,414559000.0,1236641000.0,-107570000.0,241920000.0,221232000.0,185357000.0,165267000.0,87116000.0,,,,,,,,,,
ARM,Armenia,,95801000.0,143000.0,8409000.0,7565000.0,321243000.0,6334000.0,704303000.0,10231000.0,2359000.0,-6000.0,-6000.0,-252000.0,-111000.0,,,-1329000.0,-14896000.0,-4526000.0,99000.0,6887000.0,13895000.0,5000000.0,,,,,,,,,,,,,,,,,,,,,,,,,,,,,,,,,,,,,,
ASM,American Samoa,,,,,,,,,,,,,,,,,,,,,,,,,,,,,,,,,,,,,,,,,,,,,,,,,,,,,,,,,,,,,
ATG,Antigua and Barbuda,,,,,,,,,,,,,,,,,,,,,,,,,,,,,,,,,,,,,,,,,,,,,,,,,,,,,,,,,,,,,
AUS,Australia,,,,,,,,,,,,,,,,,,,,,,,,,,,,,,,,,,,,,,,,,,,,,,,,,,,,,,,,,,,,,
AUT,Austria,,,,,,,,,,,,,,,,,,,,,,,,,,,,,,,,,,,,,,,,,,,,,,,,,,,,,,,,,,,,,
AZE,Azerbaijan,,-367297000.0,1365112000.0,659171000.0,1101507000.0,164395000.0,1688023000.0,172755000.0,640374000.0,283896000.0,170360000.0,259971000.0,138846000.0,169027000.0,138995000.0,219274000.0,-18940000.0,-24211000.0,-24742000.0,-26810000.0,85559000.0,46757000.0,-2686000.0,8057000.0,,,,,,,,,,,,,,,,,,,,,,,,,,,,,,,,,,,,,
BDI,Burundi,,,,,,,,,,,,,,,-1547000.0,-4590000.0,-4502000.0,7591000.0,-1974000.0,1795000.0,3048000.0,-69000.0,491000.0,-36000.0,-676000.0,-876000.0,-697000.0,-1194000.0,-1992000.0,-2576000.0,-5975000.0,-5554000.0,-924000.0,-7773000.0,-5736000.0,-2902000.0,10981000.0,13153000.0,686000.0,-2364000.0,-2778000.0,1210000.0,2906000.0,7000.0,34000.0,5516000.0,77000.0,-271000.0,-381000.0,-59000.0,11000.0,,,,,,,,,,
BEL,Belgium,,,,,,,,,,,,,,,,,,,,,,,,,,,,,,,,,,,,,,,,,,,,,,,,,,,,,,,,,,,,,
BEN,Benin,,263303000.0,800810000.0,38734000.0,,,,,,,,,,,,-3813000.0,0.0,,,0.0,-2081000.0,0.0,,,-29000.0,-59000.0,-88000.0,-29000.0,-118000.0,,-117000.0,-100000.0,265000.0,-1452000.0,-17929000.0,-17975000.0,-8123000.0,41991000.0,181061000.0,76036000.0,70000.0,106437000.0,3953000.0,-1042000.0,549000.0,-187000.0,3608000.0,547000.0,443000.0,-1210000.0,871000.0,,,,,,,,,,
BFA,Burkina Faso,,-1733000.0,-1733000.0,-2656000.0,-3757000.0,-4221000.0,-4164000.0,-4511000.0,-2331000.0,-2524000.0,15320000.0,5171000.0,-2762000.0,11068000.0,11615000.0,-4000.0,-4000.0,-4000.0,-3000.0,-3000.0,-3000.0,-4000.0,-4000.0,-4000.0,-4000.0,-4000.0,-4000.0,,,-600000.0,-450000.0,2607000.0,-1845000.0,-3831000.0,-7294000.0,-9065000.0,347000.0,14543000.0,20640000.0,774000.0,3897000.0,13400000.0,-414000.0,678000.0,1594000.0,1155000.0,-330000.0,-239000.0,-109000.0,1051000.0,-240000.0,,,,,,,,,,
BGD,Bangladesh,,-3609000.0,-3807000.0,-3126000.0,-3568000.0,-3576000.0,21856000.0,21202000.0,-6963000.0,-9556000.0,-9277000.0,-12423000.0,-19674000.0,-16687000.0,-23558000.0,-15836000.0,-13991000.0,-17068000.0,-6138000.0,48455000.0,45742000.0,-19035000.0,-21026000.0,-22420000.0,-29783000.0,-19886000.0,-25461000.0,-9961000.0,-18617000.0,34298000.0,55741000.0,-29981000.0,-22555000.0,1960000.0,54416000.0,-5183000.0,27561000.0,45756000.0,21408000.0,15770000.0,10702000.0,9008000.0,12088000.0,-812000.0,-1402000.0,-3010000.0,1321000.0,13311000.0,605000.0,,,,,,,,,,,,
BGR,Bulgaria,,-253000.0,708313000.0,-1073614000.0,2166973000.0,3494872000.0,1965689000.0,-1380638000.0,1200379000.0,-6951000.0,-6627000.0,-136813000.0,-8306000.0,-97818000.0,4319000.0,-1487594000.0,-761293000.0,-43822000.0,-62530000.0,204041000.0,22367000.0,2120000.0,-65212000.0,-88324000.0,-338266000.0,-98148000.0,-401024000.0,-33895000.0,79269000.0,30107000.0,-46350000.0,807902000.0,441565000.0,779402000.0,1296556000.0,887173000.0,934437000.0,482826000.0,568520000.0,393545000.0,,,,,,,,,,,,,,,,,,,,,
BHR,Bahrain,,,,,,,,,,,,,,,,,,,,,,,,,,,,,,,,,,,,,,,,,,,,,,,,,,,,,,,,,,,,,
BHS,Bahamas,,,,,,,,,,,,,,,,,,,,,,,,,,,,,,,,,,,,,,,,,,,,,,,,,,,,,,,,,,,,,
BIH,Bosnia and Herzegovina,,-30261000.0,165874000.0,-53219000.0,-49534000.0,-35038000.0,-38347000.0,-29496000.0,-25985000.0,-30258000.0,-23219000.0,2755000.0,26373000.0,4889000.0,-3363000.0,-3336000.0,,,,,,,,,,,,,,,,,,,,,,,,,,,,,,,,,,,,,,,,,,,,,
BLR,Belarus,,-582274000.0,-1509342000.0,856565000.0,-1084166000.0,-841356000.0,-1177758000.0,-214147000.0,910060000.0,-48505000.0,745830000.0,-347592000.0,518335000.0,1096732000.0,50719000.0,-1526000.0,-60224000.0,-49811000.0,-12957000.0,14272000.0,-12229000.0,-23621000.0,-6354000.0,-28036000.0,341000.0,103389000.0,113169000.0,114880000.0,,,,,,,,,,,,,,,,,,,,,,,,,,,,,,,,,
BLZ,Belize,,-2000000.0,2000000.0,25000000.0,0.0,-265000.0,-529000.0,-13801000.0,-22109000.0,-10633000.0,-10500000.0,-12222000.0,-3776000.0,51171000.0,-31409000.0,36864000.0,-45380000.0,139352000.0,54616000.0,81539000.0,157547000.0,59271000.0,6223000.0,8437000.0,6327000.0,-2228000.0,-360000.0,4538000.0,4339000.0,4983000.0,2215000.0,-547000.0,6283000.0,-1049000.0,-5022000.0,-2479000.0,1902000.0,3041000.0,5254000.0,4015000.0,5764000.0,1131000.0,,,,,,,,,,,,,,,,,,,
BMU,Bermuda,,,,,,,,,,,,,,,,,,,,,,,,,,,,,,,,,,,,,,,,,,,,,,,,,,,,,,,,,,,,,
BOL,Bolivia,,32746000.0,-1510000.0,998416000.0,-1659000.0,-1914000.0,-2024000.0,498022000.0,564471000.0,64764000.0,-67079000.0,-5525000.0,62152000.0,6318000.0,-514000.0,2374000.0,94000.0,-880000.0,2774000.0,1108000.0,8966000.0,-550000.0,4146000.0,2415000.0,-1602000.0,-7670000.0,-429000.0,-32756000.0,-6242000.0,6929000.0,-373000.0,-17537000.0,-64703000.0,18180000.0,-4485000.0,-10439000.0,-4563000.0,-30145000.0,-2445000.0,102194000.0,158887000.0,74132000.0,125953000.0,230048000.0,134660000.0,76832000.0,32225000.0,-7260000.0,23831000.0,9066000.0,1664000.0,,,,,,,,,,
BRA,Brazil,,-1932851000.0,733720000.0,-42282000.0,1757602000.0,-2639316000.0,29706701000.0,21393952000.0,18642345000.0,2919220000.0,1688293000.0,2557457000.0,-1591046000.0,-7638835000.0,-13119821000.0,3738858000.0,2196220000.0,773309000.0,-1456924000.0,4418328000.0,10552081000.0,-991722000.0,2603115000.0,4075559000.0,3514676000.0,3302582000.0,828024000.0,2251611000.0,269628000.0,1445483000.0,-277121000.0,-2803544000.0,3723223000.0,32164000.0,279664000.0,930438000.0,6643152000.0,3979486000.0,6067360000.0,4921850000.0,3522793000.0,5568400000.0,6452698000.0,3835219000.0,3413841000.0,2335147000.0,2502540000.0,1400323000.0,1458936000.0,512392000.0,443486000.0,,,,,,,,,,
BRB,Barbados,,,,,,,,,,,,,,,,,,,,,,,,,,,,,,,,,,,,,,,,,,,,,,,,,,,,,,,,,,,,,
BRN,Brunei Darussalam,,,,,,,,,,,,,,,,,,,,,,,,,,,,,,,,,,,,,,,,,,,,,,,,,,,,,,,,,,,,,
BTN,Bhutan,,-4397000.0,-4639000.0,-4436000.0,-4346000.0,-4357000.0,7134000.0,9270000.0,8612000.0,9078000.0,16050000.0,4913000.0,,,,,,,,,,,-2260000.0,-2261000.0,-2261000.0,-2261000.0,-2261000.0,-2261000.0,-2385000.0,-2511000.0,-2634000.0,-1816000.0,22911000.0,,,,,,,,,,,,,,,,,,,,,,,,,,,,
BWA,Botswana,,-4440000.0,-8880000.0,-8880000.0,-8880000.0,-8880000.0,39960000.0,,-750000.0,-250000.0,-500000.0,-500000.0,-5101000.0,-2297000.0,-2313000.0,-2291000.0,-834000.0,-2261000.0,-2247000.0,-2235000.0,-3089000.0,9820000.0,-4466000.0,-4966000.0,-8591000.0,-6249000.0,-1956000.0,29329000.0,-2679000.0,-2615000.0,-18451000.0,-3230000.0,-1171000.0,4427000.0,5988000.0,-12174000.0,6374000.0,-2238000.0,32234000.0,3196000.0,2819000.0,1700000.0,700000.0,-17000.0,2674000.0,-2855000.0,-107000.0,-113000.0,-65000.0,-69000.0,2902000.0,,,,,,,,,,
CAF,Central African Republic,,0.0,0.0,0.0,0.0,20000000.0,-2180000.0,-1291000.0,-140000.0,-152000.0,504000.0,1847000.0,0.0,0.0,0.0,0.0,0.0,0.0,0.0,0.0,-21000.0,-445000.0,,,,,-228000.0,,-596000.0,-266000.0,-560000.0,-1673000.0,467000.0,-458000.0,285000.0,-836000.0,-916000.0,1835000.0,-161000.0,-1453000.0,-872000.0,-165000.0,4000.0,9496000.0,24000.0,-530000.0,4294000.0,14245000.0,7493000.0,-135000.0,-1163000.0,,,,,,,,,,
CAN,Canada,,,,,,,,,,,,,,,,,,,,,,,,,,,,,,,,,,,,,,,,,,,,,,,,,,,,,,,,,,,,,
CEB,Central Europe and the Baltics,,,,,,,,,,,,,,,,,,,,,,,,,,,,,,,,,,,,,,,,,,,,,,,,,,,,,,,,,,,,,
CHE,Switzerland,,,,,,,,,,,,,,,,,,,,,,,,,,,,,,,,,,,,,,,,,,,,,,,,,,,,,,,,,,,,,
CHI,Channel Islands,,,,,,,,,,,,,,,,,,,,,,,,,,,,,,,,,,,,,,,,,,,,,,,,,,,,,,,,,,,,,
CHL,Chile,,,,,,,,,,,,,,,,,,,,,,,,,,,,,,,,,,,,,,,,,,,,,,,,,,,,,,,,,,,,,
CHN,China,,59557717000.0,66140148000.0,39224797000.0,7976749000.0,-1679813000.0,28820372000.0,20675032000.0,24820186000.0,24975998000.0,2718001000.0,-707248000.0,-2384386000.0,1333985000.0,-1145666000.0,2360240000.0,1646242000.0,-2794158000.0,-4061635000.0,-2721690000.0,168071000.0,-1914695000.0,209418000.0,6823283000.0,6324732000.0,4468927000.0,6690731000.0,7885352000.0,8751335000.0,2492774000.0,4619780000.0,3801065000.0,5424993000.0,5461928000.0,3689745000.0,2863510000.0,245598000.0,363886000.0,-120509000.0,89820000.0,,,,,,,,,,,,,,,,,,,,,
CIV,Cote d'Ivoire,,1684735000.0,2168921000.0,1132947000.0,127877000.0,991555000.0,700120000.0,54898000.0,2418000.0,25084000.0,26066000.0,0.0,0.0,0.0,-282000.0,-33000.0,652000.0,0.0,-848000.0,0.0,-50107000.0,-51454000.0,-25795000.0,-2596000.0,-785000.0,-34240000.0,-33667000.0,-52610000.0,-22836000.0,-49695000.0,-61706000.0,-20596000.0,-8732000.0,-105346000.0,-113720000.0,45669000.0,24875000.0,-35397000.0,592519000.0,493165000.0,735124000.0,521127000.0,569471000.0,454261000.0,185667000.0,209726000.0,64406000.0,137960000.0,18843000.0,31546000.0,16741000.0,,,,,,,,,,
CMR,Cameroon,,115021000.0,155789000.0,94574000.0,-27320000.0,828916000.0,26337000.0,84155000.0,57315000.0,3922000.0,6126000.0,7787000.0,-60000.0,-18809000.0,1415000.0,-45000.0,-63000.0,-12936000.0,,0.0,-4000000.0,-5771000.0,-33950000.0,-13731000.0,-35084000.0,-36358000.0,-24097000.0,-9249000.0,1977000.0,54542000.0,63268000.0,290444000.0,338061000.0,-32687000.0,124293000.0,-30661000.0,-2215000.0,29405000.0,-54840000.0,65294000.0,260822000.0,170959000.0,74033000.0,139468000.0,98271000.0,60942000.0,5244000.0,-5368000.0,17457000.0,1162000.0,913000.0,,,,,,,,,,
COD,"Congo, Dem. Rep.",,72394000.0,15688000.0,-509000.0,-9130000.0,1818000.0,-7639000.0,-9806000.0,12671000.0,-4999000.0,15779000.0,-20968000.0,-6979000.0,-4521000.0,-6648000.0,-2756000.0,-4207000.0,28617000.0,0.0,0.0,0.0,0.0,,,,,,,-4724000.0,-13234000.0,-12012000.0,24498000.0,-5664000.0,-18365000.0,-29557000.0,-35148000.0,-19404000.0,-15241000.0,17162000.0,63809000.0,138051000.0,28378000.0,235105000.0,324659000.0,311729000.0,202234000.0,275622000.0,297349000.0,173569000.0,156170000.0,-528000.0,,,,,,,,,,
COG,"Congo, Rep.",,-98113000.0,-97496000.0,-98835000.0,-92971000.0,-97016000.0,-89010000.0,70868000.0,112924000.0,87347000.0,-34918000.0,-58890000.0,-48772000.0,-23072000.0,0.0,0.0,-256000.0,1322000.0,-98000.0,-92000.0,0.0,0.0,-1979000.0,-13309000.0,-29742000.0,-52791000.0,-156140000.0,462768000.0,29766000.0,-187567000.0,-90568000.0,-47641000.0,168944000.0,-49385000.0,11913000.0,97232000.0,166970000.0,158729000.0,401046000.0,146838000.0,399899000.0,41671000.0,79867000.0,425000.0,11635000.0,33709000.0,38988000.0,16762000.0,6073000.0,3246000.0,-1383000.0,,,,,,,,,,
COL,Colombia,,198588000.0,-2368261000.0,270203000.0,2076398000.0,7373489000.0,7952769000.0,6495071000.0,1406406000.0,4169523000.0,174217000.0,4824616000.0,-27455000.0,1356647000.0,1053045000.0,221677000.0,745653000.0,-282849000.0,-1280353000.0,1272953000.0,787236000.0,2384354000.0,790481000.0,1572563000.0,1586604000.0,-263404000.0,1278595000.0,173620000.0,-317833000.0,-159059000.0,-3141000.0,295523000.0,286212000.0,-235375000.0,998587000.0,300552000.0,594817000.0,449392000.0,531680000.0,779133000.0,489143000.0,435406000.0,-22688000.0,135217000.0,50973000.0,152448000.0,68606000.0,112731000.0,103188000.0,22819000.0,89231000.0,,,,,,,,,,
COM,Comoros,,,,,,,,,,,,,,,,,,,,,,,,,,,,,,,,,,,-145000.0,-112000.0,-115000.0,-139000.0,621000.0,-74000.0,381000.0,,,,,,,,,,,,,,,,,,,,
CPV,Cabo Verde,,2460000.0,0.0,12516000.0,16399000.0,28577000.0,114188000.0,121100000.0,114183000.0,94977000.0,77505000.0,-3642000.0,-4343000.0,-4205000.0,-6408000.0,3972000.0,-1915000.0,-832000.0,-139000.0,8606000.0,-1800000.0,-600000.0,-2160000.0,260000.0,5347000.0,4245000.0,,,-120000.0,-240000.0,-120000.0,-120000.0,-120000.0,-120000.0,591000.0,972000.0,1437000.0,,,,,,,,,,,,,,,,,,,,,,,,
CRI,Costa Rica,,1226101000.0,-528992000.0,-70200000.0,388816000.0,1008432000.0,903578000.0,2760652000.0,1018199000.0,106646000.0,-3719000.0,-182440000.0,-361918000.0,-41891000.0,4586000.0,-58707000.0,-205697000.0,286248000.0,-34399000.0,201044000.0,463587000.0,276988000.0,180771000.0,61119000.0,-2578000.0,-10129000.0,-10076000.0,-8567000.0,-29758000.0,-31723000.0,-139237000.0,-25728000.0,-18741000.0,11507000.0,-11448000.0,59682000.0,8460000.0,129407000.0,7309000.0,89921000.0,181527000.0,115898000.0,6936000.0,104215000.0,53220000.0,51075000.0,30512000.0,25532000.0,15536000.0,16009000.0,-3355000.0,,,,,,,,,,
CSS,Caribbean small states,,,,,,,,,,,,,,,,,,,,,,,,,,,,,,,,,,,,,,,,,,,,,,,,,,,,,,,,,,,,,
CUB,Cuba,,,,,,,,,,,,,,,,,,,,,,,,,,,,,,,,,,,,,,,,,,,,,,,,,,,,,,,,,,,,,
CUW,Curacao,,,,,,,,,,,,,,,,,,,,,,,,,,,,,,,,,,,,,,,,,,,,,,,,,,,,,,,,,,,,,
CYM,Cayman Islands,,,,,,,,,,,,,,,,,,,,,,,,,,,,,,,,,,,,,,,,,,,,,,,,,,,,,,,,,,,,,
CYP,Cyprus,,,,,,,,,,,,,,,,,,,,,,,,,,,,,,,,,,,,,,,,,,,,,,,,,,,,,,,,,,,,,
CZE,Czech Republic,,,,,,,,,,,,,,,,,,,,,,,,,,,,,,,,,,,,,,,,,,,,,,,,,,,,,,,,,,,,,
DEU,Germany,,,,,,,,,,,,,,,,,,,,,,,,,,,,,,,,,,,,,,,,,,,,,,,,,,,,,,,,,,,,,
DJI,Djibouti,,-273000.0,-137000.0,-198000.0,-674000.0,-2667000.0,-2004000.0,-3661000.0,-3542000.0,-2941000.0,-2389000.0,-2469000.0,-3902000.0,-3647000.0,16777000.0,,,,,,,0.0,,,,,,,,,-590000.0,-739000.0,-1680000.0,-2279000.0,-2038000.0,125000.0,15000.0,-410000.0,3532000.0,,4977000.0,,,,,,,,,,,,,,,,,,,,
DMA,Dominica,,12635000.0,-2042000.0,-1139000.0,-2077000.0,947000.0,-2382000.0,-1991000.0,-229000.0,2614000.0,-24000.0,-1607000.0,1856000.0,299000.0,37000.0,37000.0,10516000.0,726000.0,17663000.0,11752000.0,30519000.0,18703000.0,,,,,,,,-72000.0,-74000.0,-63000.0,-68000.0,-68000.0,292000.0,,,,,,,,,,,,,,,,,,,,,,,,,,
DNK,Denmark,,,,,,,,,,,,,,,,,,,,,,,,,,,,,,,,,,,,,,,,,,,,,,,,,,,,,,,,,,,,,
DOM,Dominican Republic,,3538969000.0,3014185000.0,3097061000.0,1241768000.0,3514753000.0,1645343000.0,1229615000.0,162353000.0,585482000.0,443216000.0,-454554000.0,-222586000.0,-215797000.0,6251000.0,47461000.0,175809000.0,1526246000.0,434516000.0,569528000.0,115891000.0,37782000.0,5688000.0,1337000.0,-9792000.0,-14765000.0,-100187000.0,-12367000.0,-2394000.0,567000.0,1864000.0,5353000.0,49941000.0,15260000.0,-4464000.0,28441000.0,21084000.0,27135000.0,-19858000.0,-11559000.0,63736000.0,61925000.0,78207000.0,51325000.0,41521000.0,23515000.0,32190000.0,28380000.0,32330000.0,-320000.0,3655000.0,,,,,,,,,,
DZA,Algeria,,-4789000.0,-22450000.0,-42132000.0,-44949000.0,-50105000.0,-65070000.0,-109742000.0,-92923000.0,-151017000.0,-155419000.0,-231166000.0,-471369000.0,-234791000.0,-1488692000.0,-868203000.0,-477846000.0,-496026000.0,-375600000.0,-1043741000.0,-1247445000.0,-1514561000.0,-1328389000.0,-540781000.0,1634000.0,509713000.0,567557000.0,-455051000.0,234485000.0,-1150116000.0,-427277000.0,334784000.0,1794469000.0,1037657000.0,1069947000.0,542611000.0,614180000.0,-43238000.0,-598757000.0,17927000.0,547700000.0,2112480000.0,3604469000.0,1994042000.0,1527160000.0,1193158000.0,213057000.0,1213265000.0,201876000.0,172163000.0,246687000.0,,,,,,,,,,
EAP,East Asia & Pacific (excluding high income),,83383801000.0,93791176000.0,63644075000.0,25357848000.0,17859542000.0,36446231000.0,28265037000.0,59671125000.0,35719880000.0,15158120000.0,13764607000.0,1068530000.0,4545681000.0,4786702000.0,7856132000.0,2054202000.0,-3868637000.0,-5931104000.0,-5443310000.0,-181049000.0,-1246739000.0,4189710000.0,10004583000.0,8251554000.0,4991123000.0,7035274000.0,6475830000.0,7451944000.0,1506430000.0,1226709000.0,2603297000.0,4056355000.0,4425039000.0,4387631000.0,4652422000.0,1619209000.0,3859746000.0,3310152000.0,2007233000.0,4046123000.0,3039606000.0,1588957000.0,972279000.0,1696636000.0,1481819000.0,635546000.0,434301000.0,391680000.0,116566000.0,91836000.0,,,,,,,,,,
EAR,Early-demographic dividend,,,,,,,,,,,,,,,,,,,,,,,,,,,,,,,,,,,,,,,,,,,,,,,,,,,,,,,,,,,,,
EAS,East Asia & Pacific,,,,,,,,,,,,,,,,,,,,,,,,,,,,,,,,,,,,,,,,,,,,,,,,,,,,,,,,,,,,,
ECA,Europe & Central Asia (excluding high income),,24769574000.0,-33627415000.0,37102523000.0,4735215000.0,-24046945000.0,-33803962000.0,63555278000.0,31263518000.0,18324693000.0,28799290000.0,2389455000.0,2864842000.0,38727930000.0,23450313000.0,6274261000.0,3780052000.0,399975000.0,1937292000.0,-1396973000.0,7184154000.0,4080773000.0,9242654000.0,7354506000.0,2803576000.0,-27557000.0,-134178000.0,6988021000.0,12132554000.0,847017000.0,5435297000.0,5699303000.0,6563396000.0,5271937000.0,1638837000.0,2587562000.0,8092390000.0,2714151000.0,1400392000.0,802031000.0,4377126000.0,3065096000.0,280545000.0,773467000.0,175942000.0,1198470000.0,-45509000.0,26630000.0,127855000.0,40346000.0,-54827000.0,,,,,,,,,,
ECS,Europe & Central Asia,,,,,,,,,,,,,,,,,,,,,,,,,,,,,,,,,,,,,,,,,,,,,,,,,,,,,,,,,,,,,
ECU,Ecuador,,2001698000.0,3770376000.0,5999255000.0,2829170000.0,640886000.0,4237200000.0,2300000.0,-46238000.0,-45242000.0,-56070000.0,-6132805000.0,-56157000.0,-55811000.0,-742065000.0,539467000.0,-604739000.0,-119018000.0,-390495000.0,-9583000.0,-604936000.0,-64529000.0,-131416000.0,593473000.0,247172000.0,-140236000.0,-38494000.0,-53402000.0,-161210000.0,-57290000.0,51917000.0,202810000.0,-84054000.0,9711000.0,273671000.0,236359000.0,432283000.0,77680000.0,-135553000.0,510390000.0,472595000.0,404659000.0,346105000.0,451230000.0,87597000.0,81885000.0,-25139000.0,11112000.0,62751000.0,7023000.0,16138000.0,,,,,,,,,,
EGY,"Egypt, Arab Rep.",,8908722000.0,11339563000.0,7204974000.0,-606932000.0,2401064000.0,-2553330000.0,2957288000.0,34008000.0,-594095000.0,1661289000.0,-50121000.0,-420435000.0,608859000.0,-231362000.0,1740433000.0,136269000.0,-285906000.0,-56492000.0,1623353000.0,23267000.0,-232116000.0,-211640000.0,-41037000.0,-235013000.0,-249373000.0,-158952000.0,-311334000.0,-296843000.0,-62941000.0,15828000.0,296622000.0,643382000.0,478492000.0,605007000.0,389942000.0,595622000.0,927047000.0,1178302000.0,561499000.0,504667000.0,330299000.0,238820000.0,346421000.0,117424000.0,49100000.0,105657000.0,-59781000.0,34109000.0,-5072000.0,-30040000.0,,,,,,,,,,
EMU,Euro area,,,,,,,,,,,,,,,,,,,,,,,,,,,,,,,,,,,,,,,,,,,,,,,,,,,,,,,,,,,,,
ERI,Eritrea,,,,,0.0,,0.0,0.0,0.0,0.0,,,808000.0,,477000.0,,34633000.0,,,,,,,,,,,,,,,,,,,,,,,,,,,,,,,,,,,,,,,,,,,,
ESP,Spain,,,,,,,,,,,,,,,,,,,,,,,,,,,,,,,,,,,,,,,,,,,,,,,,,,,,,,,,,,,,,
EST,Estonia,,,,,,,,,,,,,,,,,,,,,,,,,,,,,,,,,,,,,,,,,,,,,,,,,,,,,,,,,,,,,
ETH,Ethiopia,,-313436000.0,456470000.0,364398000.0,48881000.0,1348864000.0,1402305000.0,217980000.0,540144000.0,421752000.0,625448000.0,1022678000.0,-32953000.0,-44255000.0,-44933000.0,116212000.0,70502000.0,128578000.0,-4070000.0,-9983000.0,-8051000.0,-12066000.0,2106000.0,22647000.0,-209577000.0,-47917000.0,-32892000.0,-26825000.0,79790000.0,212418000.0,-55645000.0,-68114000.0,63457000.0,73222000.0,27851000.0,59944000.0,117310000.0,37694000.0,98160000.0,63300000.0,26302000.0,6050000.0,5004000.0,-2275000.0,-3024000.0,-2747000.0,1360000.0,-2103000.0,-6204000.0,-4766000.0,-6891000.0,,,,,,,,,,
EUU,European Union,,,,,,,,,,,,,,,,,,,,,,,,,,,,,,,,,,,,,,,,,,,,,,,,,,,,,,,,,,,,,
FCS,Fragile and conflict affected situations,,,,,,,,,,,,,,,,,,,,,,,,,,,,,,,,,,,,,,,,,,,,,,,,,,,,,,,,,,,,,
FIN,Finland,,,,,,,,,,,,,,,,,,,,,,,,,,,,,,,,,,,,,,,,,,,,,,,,,,,,,,,,,,,,,
FJI,Fiji,,0.0,0.0,0.0,-6850000.0,-43150000.0,,,,100000000.0,,,,,150000000.0,,,,-2000.0,-14000.0,-21000.0,-25000.0,-33000.0,-185000.0,-219000.0,-957000.0,-1617000.0,-2809000.0,-10126000.0,-9403000.0,-12453000.0,-14782000.0,298000.0,-16108000.0,-12192000.0,10908000.0,8794000.0,7648000.0,-1934000.0,2746000.0,27893000.0,8866000.0,-6349000.0,7671000.0,-1608000.0,-1822000.0,-2044000.0,17052000.0,5464000.0,1101000.0,-883000.0,,,,,,,,,,
FRA,France,,,,,,,,,,,,,,,,,,,,,,,,,,,,,,,,,,,,,,,,,,,,,,,,,,,,,,,,,,,,,
FRO,Faroe Islands,,,,,,,,,,,,,,,,,,,,,,,,,,,,,,,,,,,,,,,,,,,,,,,,,,,,,,,,,,,,,
FSM,"Micronesia, Fed. Sts.",,,,,,,,,,,,,,,,,,,,,,,,,,,,,,,,,,,,,,,,,,,,,,,,,,,,,,,,,,,,,
GAB,Gabon,,-193318000.0,-241356000.0,-127827000.0,196016000.0,412971000.0,41032000.0,1106061000.0,68077000.0,236674000.0,160176000.0,78607000.0,5433000.0,1055593000.0,38513000.0,-14762000.0,-54420000.0,-64797000.0,-11938000.0,-27322000.0,-6539000.0,8890000.0,-6814000.0,-4698000.0,-50930000.0,-74811000.0,-30898000.0,-1730000.0,-16706000.0,-31646000.0,29005000.0,25962000.0,118244000.0,83339000.0,275469000.0,95254000.0,30516000.0,-64718000.0,-100897000.0,-187739000.0,-124765000.0,116816000.0,-86361000.0,108485000.0,299194000.0,253332000.0,100128000.0,130070000.0,70169000.0,27301000.0,9321000.0,,,,,,,,,,
GBR,United Kingdom,,,,,,,,,,,,,,,,,,,,,,,,,,,,,,,,,,,,,,,,,,,,,,,,,,,,,,,,,,,,,
GEO,Georgia,,-51978000.0,8472000.0,-213854000.0,329869000.0,-36693000.0,72720000.0,-26266000.0,909887000.0,270085000.0,152502000.0,180822000.0,430361000.0,-340000.0,-406000.0,-118000.0,-210000.0,-162000.0,-110000.0,-43000.0,,,,-84000.0,,,-926000.0,-4729000.0,21450000.0,,,,,,,,,,,,,,,,,,,,,,,,,,,,,,,,
GHA,Ghana,,2733363000.0,1005899000.0,-75816000.0,1473376000.0,1488512000.0,1596074000.0,1930841000.0,331229000.0,392352000.0,220083000.0,189293000.0,82715000.0,55190000.0,-1327000.0,11285000.0,26753000.0,-28771000.0,-1203000.0,196347000.0,5210000.0,-48103000.0,57845000.0,88425000.0,35093000.0,98198000.0,63063000.0,22843000.0,44077000.0,33721000.0,-19776000.0,-61901000.0,-19313000.0,5338000.0,79859000.0,26079000.0,3272000.0,24519000.0,14180000.0,-2755000.0,-41747000.0,-5883000.0,16141000.0,22065000.0,-8132000.0,-16607000.0,15867000.0,-1354000.0,-2676000.0,-1874000.0,-1604000.0,,,,,,,,,,
GIB,Gibraltar,,,,,,,,,,,,,,,,,,,,,,,,,,,,,,,,,,,,,,,,,,,,,,,,,,,,,,,,,,,,,
GIN,Guinea,,41421000.0,-11813000.0,-11297000.0,-11067000.0,-11096000.0,-13290000.0,-13428000.0,-12744000.0,-13797000.0,-13269000.0,-13928000.0,-14717000.0,-11479000.0,-11301000.0,-11212000.0,181522000.0,0.0,-198000.0,-188000.0,-194000.0,-224000.0,-10435000.0,-20148000.0,16602000.0,-14917000.0,-9312000.0,3110000.0,-8111000.0,-10355000.0,-18698000.0,-13179000.0,19064000.0,-3320000.0,1116000.0,17738000.0,6114000.0,21619000.0,22587000.0,21637000.0,46176000.0,30358000.0,31357000.0,13416000.0,11787000.0,3945000.0,1626000.0,22455000.0,325000.0,6054000.0,5714000.0,,,,,,,,,,
GMB,"Gambia, The",,-909000.0,-1920000.0,-1835000.0,-1799000.0,-1802000.0,-851000.0,908000.0,5259000.0,-2242000.0,3179000.0,786000.0,1520000.0,,,-283000.0,-282000.0,,,-300000.0,-310000.0,,,,-228000.0,-366000.0,-4318000.0,-4295000.0,-4464000.0,-4546000.0,-7484000.0,-491000.0,-670000.0,-2110000.0,-43000.0,-129000.0,-115000.0,2183000.0,7092000.0,7470000.0,21328000.0,2354000.0,-213000.0,-213000.0,1063000.0,,,,,,,,,,,,,,,,
GNB,Guinea-Bissau,,29482000.0,28197000.0,40638000.0,-481000.0,7755000.0,17472000.0,3154000.0,,,,,,,,,,,,,-178000.0,-129000.0,-129000.0,-129000.0,-233000.0,-254000.0,-75000.0,,-29000.0,-78000.0,-78000.0,-78000.0,,5496000.0,-122000.0,19868000.0,2947000.0,-403000.0,453000.0,-1511000.0,17755000.0,8923000.0,4383000.0,4079000.0,2171000.0,,,,,,,,,,,,,,,,
GNQ,Equatorial Guinea,,,,,,,,,,,,,,,,,,,,,,,,,,,,,,,,,,,,,,,,,,,,,,,,,,,,,,,,,,,,,
GRC,Greece,,,,,,,,,,,,,,,,,,,,,,,,,,,,,,,,,,,,,,,,,,,,,,,,,,,,,,,,,,,,,
GRD,Grenada,,-9551000.0,-10163000.0,-9828000.0,-9398000.0,-1069000.0,,,,-2910000.0,-4365000.0,0.0,,,7275000.0,-359000.0,37510000.0,4805000.0,99519000.0,-3701000.0,54055000.0,807000.0,372000.0,-630000.0,-876000.0,-1789000.0,-1486000.0,-1284000.0,-412000.0,10953000.0,-171000.0,-751000.0,-892000.0,-658000.0,535000.0,-755000.0,-305000.0,-2396000.0,4959000.0,1269000.0,-556000.0,500000.0,-514000.0,,-627000.0,,,,,567000.0,5563000.0,,,,,,,,,,
GRL,Greenland,,,,,,,,,,,,,,,,,,,,,,,,,,,,,,,,,,,,,,,,,,,,,,,,,,,,,,,,,,,,,
GTM,Guatemala,,1197518000.0,-1585000.0,495505000.0,702518000.0,8838000.0,817000.0,417243000.0,700014000.0,-324603000.0,1539000.0,240000.0,46000.0,-148569000.0,-10719000.0,-585000.0,328421000.0,267312000.0,-33964000.0,292862000.0,-32174000.0,-35982000.0,-39356000.0,90372000.0,-62395000.0,29111000.0,54325000.0,-29605000.0,-28203000.0,-17841000.0,-15661000.0,-12947000.0,-95089000.0,-75465000.0,-81961000.0,6610000.0,52422000.0,161750000.0,151554000.0,88681000.0,9909000.0,-1420000.0,-1285000.0,-2516000.0,-3757000.0,1584000.0,-17318000.0,-7044000.0,-14570000.0,-201000.0,9960000.0,,,,,,,,,,
GUM,Guam,,,,,,,,,,,,,,,,,,,,,,,,,,,,,,,,,,,,,,,,,,,,,,,,,,,,,,,,,,,,,
GUY,Guyana,,-768000.0,-722000.0,17307000.0,-61000.0,0.0,0.0,-12000.0,,,0.0,,,,-201000.0,-161000.0,-322000.0,-693000.0,-593000.0,-490000.0,-44000.0,-172000.0,-4197000.0,-3788000.0,1572000.0,-10383000.0,-3732000.0,-7313000.0,-8580000.0,-12571000.0,-16291000.0,-7275000.0,9524000.0,14127000.0,19714000.0,-5191000.0,-5882000.0,-6943000.0,-4205000.0,-15375000.0,4983000.0,-5324000.0,-9853000.0,20620000.0,38203000.0,56171000.0,2135000.0,9373000.0,-900000.0,-15000.0,-875000.0,,,,,,,,,,
HIC,High income,,,,,,,,,,,,,,,,,,,,,,,,,,,,,,,,,,,,,,,,,,,,,,,,,,,,,,,,,,,,,
HKG,"Hong Kong SAR, China",,,,,,,,,,,,,,,,,,,,,,,,,,,,,,,,,,,,,,,,,,,,,,,,,,,,,,,,,,,,,
HND,Honduras,,-10030000.0,11976000.0,760363000.0,41910000.0,40072000.0,119189000.0,1075295000.0,14631000.0,-6785000.0,-1427000.0,-3252000.0,5966000.0,43405000.0,-4074000.0,7191000.0,58199000.0,-6489000.0,-392000.0,-15651000.0,2645000.0,-404000.0,-28789000.0,-46717000.0,263000.0,2233000.0,1625000.0,151288000.0,-31831000.0,-3950000.0,49378000.0,22787000.0,-3303000.0,-30843000.0,25736000.0,39014000.0,4513000.0,35761000.0,14015000.0,62370000.0,97980000.0,68712000.0,27537000.0,42371000.0,23433000.0,5127000.0,9803000.0,256000.0,2331000.0,-1410000.0,-1133000.0,,,,,,,,,,
HPC,Heavily indebted poor countries (HIPC),,,,,,,,,,,,,,,,,,,,,,,,,,,,,,,,,,,,,,,,,,,,,,,,,,,,,,,,,,,,,
HRV,Croatia,,,,,,,,,,,,,,,,,,,,,,,,,,,,,,,,,,,,,,,,,,,,,,,,,,,,,,,,,,,,,
HTI,Haiti,,-1163000.0,,,,,-2326000.0,-2326000.0,,,,,50000000.0,,,,,,,,,,,,,,,,,,,-1200000.0,-1151000.0,-1560000.0,-3200000.0,-3663000.0,-5252000.0,-5512000.0,9460000.0,60133000.0,7378000.0,3909000.0,-2154000.0,2308000.0,7245000.0,-1601000.0,-255000.0,-1882000.0,-1037000.0,-447000.0,1677000.0,,,,,,,,,,
HUN,Hungary,,,,,,,,,,,,,,,,,,,,,,,,,,,,,,,,,,,,,,,,,,,,,,,,,,,,,,,,,,,,,
IBD,IBRD only,,,,,,,,,,,,,,,,,,,,,,,,,,,,,,,,,,,,,,,,,,,,,,,,,,,,,,,,,,,,,
IBT,IDA & IBRD total,,,,,,,,,,,,,,,,,,,,,,,,,,,,,,,,,,,,,,,,,,,,,,,,,,,,,,,,,,,,,
IDA,IDA total,,,,,,,,,,,,,,,,,,,,,,,,,,,,,,,,,,,,,,,,,,,,,,,,,,,,,,,,,,,,,
IDB,IDA blend,,,,,,,,,,,,,,,,,,,,,,,,,,,,,,,,,,,,,,,,,,,,,,,,,,,,,,,,,,,,,
IDN,Indonesia,,19348304000.0,19044949000.0,16674902000.0,17112168000.0,17509634000.0,6098488000.0,6683626000.0,24367341000.0,5353920000.0,4216419000.0,9121569000.0,3395283000.0,3190008000.0,4661804000.0,2909264000.0,-1741270000.0,-1189516000.0,-1696700000.0,-1391367000.0,-1977812000.0,-2773473000.0,558803000.0,190153000.0,225634000.0,-160842000.0,472795000.0,-1141763000.0,-443833000.0,-933406000.0,-1982168000.0,-922222000.0,-902052000.0,-481674000.0,593966000.0,231541000.0,929636000.0,2515149000.0,1787185000.0,657447000.0,814730000.0,8755000.0,-56383000.0,393057000.0,1066392000.0,1271451000.0,498972000.0,449927000.0,357825000.0,92003000.0,28414000.0,,,,,,,,,,
IDX,IDA only,,,,,,,,,,,,,,,,,,,,,,,,,,,,,,,,,,,,,,,,,,,,,,,,,,,,,,,,,,,,,
IMN,Isle of Man,,,,,,,,,,,,,,,,,,,,,,,,,,,,,,,,,,,,,,,,,,,,,,,,,,,,,,,,,,,,,
IND,India,,8038001000.0,-5445970000.0,24988249000.0,-10880003000.0,9904614000.0,33306097000.0,3469737000.0,9533006000.0,4099295000.0,13952913000.0,2025623000.0,2503228000.0,4897153000.0,2438848000.0,-6963529000.0,892398000.0,-3814405000.0,440218000.0,-1588896000.0,4026463000.0,-891338000.0,2979138000.0,-514939000.0,-695815000.0,225896000.0,681739000.0,2071311000.0,1615476000.0,1440686000.0,1698742000.0,2971524000.0,5783447000.0,2765333000.0,2906408000.0,2120507000.0,1817142000.0,1184014000.0,1048539000.0,491829000.0,595044000.0,5091000.0,2349000.0,59288000.0,-13428000.0,27033000.0,4500000.0,-61205000.0,-38383000.0,-19010000.0,-48444000.0,,,,,,,,,,
INX,Not classified,,,,,,,,,,,,,,,,,,,,,,,,,,,,,,,,,,,,,,,,,,,,,,,,,,,,,,,,,,,,,
IRL,Ireland,,,,,,,,,,,,,,,,,,,,,,,,,,,,,,,,,,,,,,,,,,,,,,,,,,,,,,,,,,,,,
IRN,"Iran, Islamic Rep.",,0.0,-44652000.0,-176446000.0,-1735411000.0,-403120000.0,-233595000.0,-118369000.0,-251798000.0,-784709000.0,-1080923000.0,-1460101000.0,-1319529000.0,-869892000.0,-222377000.0,661418000.0,664744000.0,1029234000.0,684992000.0,1070348000.0,401815000.0,134267000.0,104066000.0,-296349000.0,-414420000.0,-32576000.0,636514000.0,1258878000.0,1171453000.0,349562000.0,-29678000.0,-18886000.0,-90341000.0,-115730000.0,-131155000.0,-186117000.0,-303561000.0,-386560000.0,-202760000.0,-357181000.0,-185641000.0,,,,,,,,,,,,,,,,,,,,
IRQ,Iraq,,,,,,,,,,,,,,,,,,,,,,,,,,,,,,,,,,,,,,,,,,,,,,,,,,,,,,,,,,,,,
ISL,Iceland,,,,,,,,,,,,,,,,,,,,,,,,,,,,,,,,,,,,,,,,,,,,,,,,,,,,,,,,,,,,,
ISR,Israel,,,,,,,,,,,,,,,,,,,,,,,,,,,,,,,,,,,,,,,,,,,,,,,,,,,,,,,,,,,,,
ITA,Italy,,,,,,,,,,,,,,,,,,,,,,,,,,,,,,,,,,,,,,,,,,,,,,,,,,,,,,,,,,,,,
JAM,Jamaica,,-291265000.0,-204126000.0,446038000.0,-167386000.0,1509111000.0,533115000.0,-96990000.0,-344256000.0,225400000.0,84940000.0,-362889000.0,228494000.0,399761000.0,492758000.0,641890000.0,701422000.0,-135133000.0,70715000.0,749856000.0,506342000.0,-57035000.0,241641000.0,-26736000.0,29400000.0,-21227000.0,-40878000.0,2030000.0,-11456000.0,-56975000.0,-37681000.0,-1237000.0,-14584000.0,3914000.0,-12023000.0,50476000.0,45665000.0,65707000.0,19815000.0,-3260000.0,-33863000.0,-13479000.0,-8579000.0,-12664000.0,46115000.0,138771000.0,144573000.0,103003000.0,30331000.0,2542000.0,-2985000.0,,,,,,,,,,
JOR,Jordan,,-626714000.0,674978000.0,1991589000.0,1028234000.0,1241920000.0,979754000.0,2371996000.0,-28018000.0,-26206000.0,727130000.0,-3127000.0,-65155000.0,-15364000.0,-10527000.0,146486000.0,-14861000.0,-478432000.0,-33707000.0,-34173000.0,-70212000.0,-68359000.0,-122848000.0,-132604000.0,-159313000.0,-200983000.0,-183518000.0,-126440000.0,-135243000.0,-98687000.0,214301000.0,491298000.0,675163000.0,335080000.0,433776000.0,190152000.0,149695000.0,266917000.0,123817000.0,28671000.0,-6165000.0,50478000.0,78567000.0,104631000.0,898000.0,19091000.0,13151000.0,-1018000.0,-2026000.0,7803000.0,4057000.0,,,,,,,,,,
JPN,Japan,,,,,,,,,,,,,,,,,,,,,,,,,,,,,,,,,,,,,,,,,,,,,,,,,,,,,,,,,,,,,
KAZ,Kazakhstan,,1287575000.0,2914223000.0,-500000000.0,,4000000000.0,2500000000.0,4625000000.0,2309775000.0,,-841000.0,-1681000.0,-10812000.0,-360812000.0,-20812000.0,-72446000.0,-378285000.0,-72010000.0,-392615000.0,-58760000.0,372581000.0,65084000.0,-52279000.0,396402000.0,154787000.0,181747000.0,131268000.0,170802000.0,16451000.0,,,,,,,,,,,,,,,,,,,,,,,,,,,,,,,,
KEN,Kenya,,480502000.0,1795464000.0,961723000.0,151103000.0,759737000.0,2130995000.0,1905000.0,669584000.0,4709000.0,1939000.0,4829000.0,-8601000.0,-11553000.0,-63360000.0,-45502000.0,-50514000.0,148364000.0,8287000.0,-78131000.0,-32508000.0,-2052000.0,15468000.0,-71591000.0,-124622000.0,-78406000.0,-211562000.0,-54804000.0,19533000.0,253726000.0,47244000.0,175273000.0,33807000.0,116234000.0,81825000.0,-74748000.0,-54645000.0,-53662000.0,-66296000.0,39909000.0,222473000.0,201061000.0,113021000.0,115607000.0,43957000.0,-7679000.0,1449000.0,8660000.0,12704000.0,623000.0,-10220000.0,,,,,,,,,,
KGZ,Kyrgyz Republic,,,,,,,,,,,,,,,,0.0,,0.0,-23651000.0,-6369000.0,74000.0,4233000.0,2702000.0,23012000.0,7000000.0,,,,,,,,,,,,,,,,,,,,,,,,,,,,,,,,,,,,
KHM,Cambodia,,,,,,,,,,,,,,,,,,,,,,-3198000.0,-3200000.0,-3198000.0,-3200000.0,12796000.0,,,,,,,,,,,,,,,,,,,,,,,,,,,,,,,,,,,
KIR,Kiribati,,,,,,,,,,,,,,,,,,,,,,,,,,,,,,,,,,,,,,,,,,,,,,,,,,,,,,,,,,,,,
KNA,St. Kitts and Nevis,,,,,,,,,,,-15494000.0,-11860000.0,-14862000.0,-13054000.0,-13588000.0,-15211000.0,-8769000.0,14425000.0,25294000.0,47950000.0,16554000.0,4649000.0,7478000.0,17433000.0,-1225000.0,-922000.0,2264000.0,246000.0,362000.0,1301000.0,-433000.0,2976000.0,0.0,0.0,0.0,0.0,0.0,,,,,,,,,,,,,,,,,,,,,,,,
KOR,"Korea, Rep.",,,,,,,,,,,,,,,,,,,,,,,,,,,,,,,,,,,,,,,,,,,,,,,,,,,,,,,,,,,,,
KWT,Kuwait,,,,,,,,,,,,,,,,,,,,,,,,,,,,,,,,,,,,,,,,,,,,,,,,,,,,,,,,,,,,,
LAC,Latin America & Caribbean (excluding high income),,6471963000.0,47207225000.0,53128495000.0,58095200000.0,30011618000.0,85156019000.0,56942918000.0,57567800000.0,32426960000.0,31396331000.0,14882530000.0,8307090000.0,7080756000.0,-16655901000.0,16042500000.0,13055890000.0,11117701000.0,-1701344000.0,8265935000.0,16370173000.0,18217040000.0,15432644000.0,18255357000.0,25938758000.0,9694549000.0,7293420000.0,6667623000.0,-3514407000.0,2170967000.0,424199000.0,-2994793000.0,4458188000.0,3657294000.0,782602000.0,3892135000.0,8561045000.0,11189239000.0,19280318000.0,17133100000.0,12029886000.0,15470416000.0,14248362000.0,11380913000.0,10450655000.0,6015920000.0,5539021000.0,3653847000.0,2651338000.0,1193935000.0,987505000.0,,,,,,,,,,
LAO,Lao PDR,,-25831000.0,166187000.0,397273000.0,281758000.0,611364000.0,168330000.0,142676000.0,-1214000.0,1714000.0,6232000.0,,,18394000.0,95000.0,12136000.0,,34200000.0,,,,,,,,,,,,,,,,,,,,,,,,-238000.0,-78000.0,-635000.0,-538000.0,993000.0,822000.0,4917000.0,401000.0,-91000.0,-91000.0,,,,,,,,,,
LBN,Lebanon,,317338000.0,3178429000.0,1943737000.0,1066488000.0,1797825000.0,-418960000.0,1616448000.0,3466056000.0,547494000.0,-232210000.0,145503000.0,-183356000.0,643467000.0,1011908000.0,779571000.0,2553507000.0,76464000.0,4685254000.0,2412313000.0,1331710000.0,1322725000.0,1496546000.0,351266000.0,179420000.0,633283000.0,398216000.0,-5099000.0,-4745000.0,6242000.0,6321000.0,1569000.0,14883000.0,11274000.0,9927000.0,-30022000.0,-29351000.0,-10284000.0,62212000.0,52862000.0,69814000.0,-185000.0,-174000.0,-213000.0,-218000.0,-53000.0,1255000.0,-53000.0,-53000.0,-53000.0,-53000.0,,,,,,,,,,
LBR,Liberia,,,,,,,,,,,,,,0.0,0.0,0.0,0.0,0.0,0.0,0.0,0.0,0.0,,,,,,,,,,,,,,-35000.0,-208000.0,7314000.0,-6454000.0,-1025000.0,-423000.0,54274000.0,42572000.0,34517000.0,6982000.0,-2908000.0,-96000.0,-4415000.0,-5038000.0,-3125000.0,-6551000.0,,,,,,,,,,
LBY,Libya,,,,,,,,,,,,,,,,,,,,,,,,,,,,,,,,,,,,,,,,,,,,,,,,,,,,,,,,,,,,,
LCA,St. Lucia,,-200000.0,-200000.0,-617000.0,-5369000.0,-26147000.0,-1034000.0,-4900000.0,-11891000.0,-11891000.0,-11891000.0,-8496000.0,-14963000.0,-11891000.0,-1603000.0,-4693000.0,-360000.0,8953000.0,29956000.0,7419000.0,22744000.0,9709000.0,273000.0,-9000.0,-10000.0,-10000.0,-10000.0,-528000.0,-771000.0,-929000.0,-782000.0,-359000.0,-15000.0,22000.0,2805000.0,-13000.0,,,,,,,,,,,,,,,,,,,,,,,,,
LCN,Latin America & Caribbean,,,,,,,,,,,,,,,,,,,,,,,,,,,,,,,,,,,,,,,,,,,,,,,,,,,,,,,,,,,,,
LDC,Least developed countries: UN classification,,,,,,,,,,,,,,,,,,,,,,,,,,,,,,,,,,,,,,,,,,,,,,,,,,,,,,,,,,,,,
LIC,Low income,,-158528000.0,430380000.0,824147000.0,-108455000.0,1318711000.0,2810942000.0,2734685000.0,567113000.0,512509000.0,710851000.0,1016740000.0,-11455000.0,-49765000.0,-62606000.0,84164000.0,263531000.0,145326000.0,-28169000.0,-29329000.0,519324000.0,-30408000.0,-18828000.0,-12811000.0,-213047000.0,-147166000.0,-90583000.0,11775000.0,8089000.0,103624000.0,32137000.0,177311000.0,447970000.0,443797000.0,76589000.0,118129000.0,379479000.0,203815000.0,511660000.0,833994000.0,869216000.0,740265000.0,780238000.0,813030000.0,603972000.0,496370000.0,631205000.0,435743000.0,242220000.0,198487000.0,23484000.0,,,,,,,,,,
LIE,Liechtenstein,,,,,,,,,,,,,,,,,,,,,,,,,,,,,,,,,,,,,,,,,,,,,,,,,,,,,,,,,,,,,
LKA,Sri Lanka,,2195633000.0,1618080000.0,1227014000.0,2176891000.0,1484611000.0,80474000.0,1733604000.0,3181631000.0,1050500000.0,1097341000.0,388861000.0,56811000.0,686324000.0,96368000.0,94700000.0,16343000.0,94699000.0,14484000.0,-102405000.0,17896000.0,-79640000.0,190833000.0,160513000.0,67436000.0,103260000.0,-12883000.0,-35577000.0,-33504000.0,66469000.0,12603000.0,-43555000.0,-87220000.0,-54189000.0,7858000.0,-3309000.0,78981000.0,58508000.0,222440000.0,181820000.0,83891000.0,9355000.0,-29013000.0,-52949000.0,11910000.0,-22101000.0,51565000.0,9869000.0,-1189000.0,4448000.0,-3434000.0,,,,,,,,,,
LMC,Lower middle income,,31666029000.0,26822271000.0,50197770000.0,-7800250000.0,27533489000.0,50104968000.0,22354264000.0,25890196000.0,9685311000.0,24454641000.0,3963381000.0,3108431000.0,10918871000.0,2109755000.0,-2606268000.0,5512579000.0,-2495921000.0,516504000.0,-1279648000.0,4168718000.0,863654000.0,3672329000.0,3174424000.0,-35527000.0,771387000.0,366281000.0,2621988000.0,1026140000.0,-258935000.0,1602605000.0,4520501000.0,8578219000.0,4726673000.0,6317467000.0,3905661000.0,3910561000.0,5204714000.0,8584549000.0,4963137000.0,6841932000.0,6607813000.0,8291115000.0,5484562000.0,3109749000.0,2885332000.0,870410000.0,1104102000.0,327627000.0,313947000.0,600234000.0,,,,,,,,,,
LMY,Low & middle income,,154355198000.0,130645319000.0,214177353000.0,87845336000.0,39958016000.0,142530146000.0,173012364000.0,184528697000.0,105292377000.0,100146777000.0,32589297000.0,19118824000.0,58783845000.0,9889957000.0,27025177000.0,24369684000.0,4245839000.0,-7304000.0,3184200000.0,27469187000.0,20671164000.0,32048008000.0,43173855000.0,35556868000.0,17474861000.0,17078299000.0,23500472000.0,19442223000.0,5065549000.0,9041231000.0,10672171000.0,25632901000.0,19519098000.0,13459439000.0,14584142000.0,22127748000.0,22037760000.0,31714661000.0,24358614000.0,26784388000.0,28115367000.0,24260025000.0,18794258000.0,15614021000.0,11999914000.0,7432958000.0,5759418000.0,3717146000.0,1863019000.0,1606794000.0,,,,,,,,,,
LSO,Lesotho,,-156000.0,-172000.0,-237000.0,-328000.0,-4527000.0,-496000.0,-501000.0,-475000.0,-535000.0,-478000.0,-907000.0,-3393000.0,-5550000.0,-8237000.0,-33539000.0,-8677000.0,-6254000.0,-8132000.0,-4811000.0,-4855000.0,8596000.0,24901000.0,21745000.0,29868000.0,11798000.0,-3680000.0,-2863000.0,-5101000.0,1436000.0,-42000.0,1922000.0,10515000.0,11779000.0,-843000.0,-5778000.0,-6895000.0,9715000.0,2459000.0,5466000.0,2324000.0,7591000.0,-31000.0,-56000.0,-74000.0,-41000.0,-67000.0,-68000.0,387000.0,161000.0,130000.0,,,,,,,,,,
LTE,Late-demographic dividend,,,,,,,,,,,,,,,,,,,,,,,,,,,,,,,,,,,,,,,,,,,,,,,,,,,,,,,,,,,,,
LTU,Lithuania,,,,,,,,,,,,,,,,,,,,,,,,,,,,,,,,,,,,,,,,,,,,,,,,,,,,,,,,,,,,,
LUX,Luxembourg,,,,,,,,,,,,,,,,,,,,,,,,,,,,,,,,,,,,,,,,,,,,,,,,,,,,,,,,,,,,,
LVA,Latvia,,,,,,,,,,,,,,,,,,,,,,,,,,,,,,,,,,,,,,,,,,,,,,,,,,,,,,,,,,,,,
MAC,"Macao SAR, China",,,,,,,,,,,,,,,,,,,,,,,,,,,,,,,,,,,,,,,,,,,,,,,,,,,,,,,,,,,,,
MAF,St. Martin (French part),,,,,,,,,,,,,,,,,,,,,,,,,,,,,,,,,,,,,,,,,,,,,,,,,,,,,,,,,,,,,
MAR,Morocco,,2619158000.0,46691000.0,-654186000.0,-151122000.0,2183553000.0,3157962000.0,894671000.0,1580889000.0,149154000.0,1485668000.0,461390000.0,-457516000.0,32291000.0,-157821000.0,-477775000.0,-541377000.0,-114814000.0,-532161000.0,-431972000.0,-317592000.0,-553932000.0,58177000.0,-139524000.0,-241341000.0,85736000.0,66444000.0,-73104000.0,45066000.0,-111403000.0,318245000.0,234912000.0,287717000.0,294303000.0,700265000.0,184342000.0,469107000.0,203333000.0,763970000.0,142171000.0,781428000.0,698364000.0,639213000.0,1069449000.0,500022000.0,879690000.0,89828000.0,-4289000.0,-876000.0,36939000.0,20968000.0,,,,,,,,,,
MCO,Monaco,,,,,,,,,,,,,,,,,,,,,,,,,,,,,,,,,,,,,,,,,,,,,,,,,,,,,,,,,,,,,
MDA,Moldova,,-87000.0,649000.0,-554000.0,1479000.0,-3010000.0,-1914000.0,-2657000.0,5680000.0,3924000.0,-4399000.0,2512000.0,-8249000.0,-9162000.0,-177000.0,-7258000.0,-5896000.0,-5928000.0,-44070000.0,-3644000.0,-537000.0,-9181000.0,-46742000.0,66944000.0,80095000.0,19316000.0,,,,,,,,,,,,,,,,,,,,,,,,,,,,,,,,,,,
MDG,Madagascar,,-9084000.0,40000000.0,43551000.0,-7646000.0,62589000.0,,20113000.0,-15000.0,-43000.0,-13000.0,,100000.0,-428000.0,-3198000.0,-1016000.0,-1088000.0,-53000.0,-44000.0,-1954000.0,-421000.0,-748000.0,-754000.0,-1360000.0,-4825000.0,-4061000.0,-4926000.0,-8007000.0,-8358000.0,-10809000.0,-15001000.0,-16909000.0,-14637000.0,-15254000.0,-49712000.0,588000.0,3273000.0,74247000.0,48103000.0,63163000.0,139736000.0,166244000.0,18691000.0,21662000.0,1827000.0,-940000.0,-939000.0,170000.0,5966000.0,1737000.0,-769000.0,,,,,,,,,,
MDV,Maldives,,72538000.0,410945000.0,250743000.0,-13791000.0,4726000.0,-3543000.0,-8851000.0,-21427000.0,9786000.0,12416000.0,-18263000.0,28847000.0,5772000.0,9335000.0,7329000.0,-4286000.0,-3894000.0,12066000.0,490000.0,21000.0,4321000.0,10647000.0,6006000.0,2344000.0,1553000.0,-410000.0,1891000.0,2971000.0,-737000.0,1139000.0,-3480000.0,-1957000.0,-1152000.0,1631000.0,-2604000.0,4950000.0,3001000.0,-446000.0,2807000.0,,,,,,,,,,,,,,,,,,,,,
MEA,Middle East & North Africa,,,,,,,,,,,,,,,,,,,,,,,,,,,,,,,,,,,,,,,,,,,,,,,,,,,,,,,,,,,,,
MEX,Mexico,,11550381000.0,10833939000.0,16073041000.0,12582425000.0,15848515000.0,31341768000.0,25897545000.0,32074635000.0,16285361000.0,22995904000.0,8201791000.0,8523084000.0,7726888000.0,-5394881000.0,3062736000.0,4404815000.0,5359849000.0,355118000.0,5616495000.0,-4803574000.0,1522489000.0,2395189000.0,-2075432000.0,10284690000.0,3913492000.0,2696235000.0,2535021000.0,-3581011000.0,1141460000.0,3174352000.0,-435998000.0,227380000.0,3727924000.0,-635669000.0,69578000.0,403784000.0,2632203000.0,7048953000.0,8664983000.0,4325561000.0,3152833000.0,3848106000.0,4226473000.0,4054743000.0,2941093000.0,2017224000.0,1322125000.0,270581000.0,202780000.0,155506000.0,,,,,,,,,,
MHL,Marshall Islands,,,,,,,,,,,,,,,,,,,,,,,,,,,,,,,,,,,,,,,,,,,,,,,,,,,,,,,,,,,,,
MIC,Middle income,,154513726000.0,130214939000.0,213353206000.0,87953791000.0,38639305000.0,139719204000.0,170277679000.0,183961584000.0,104779868000.0,99435926000.0,31572557000.0,19130279000.0,58833610000.0,9952563000.0,26941013000.0,24106153000.0,4100513000.0,20865000.0,3213529000.0,26949863000.0,20701572000.0,32066836000.0,43186666000.0,35769915000.0,17622027000.0,17168882000.0,23488697000.0,19434134000.0,4961925000.0,9009094000.0,10494860000.0,25184931000.0,19075301000.0,13382850000.0,14466013000.0,21748269000.0,21833945000.0,31203001000.0,23524620000.0,25915172000.0,27375102000.0,23479787000.0,17981228000.0,15010049000.0,11503544000.0,6801753000.0,5323675000.0,3474926000.0,1664532000.0,1583310000.0,,,,,,,,,,
MKD,North Macedonia,,-42442000.0,386990000.0,-63533000.0,369845000.0,131747000.0,643813000.0,119313000.0,83435000.0,236101000.0,-1997000.0,236958000.0,32446000.0,-4907000.0,-199499000.0,173784000.0,-2310000.0,1339000.0,-1131000.0,-1503000.0,-468000.0,21595000.0,4726000.0,-480000.0,127000.0,377000.0,-4000.0,-302000.0,,,,,,,,,,,,,,,,,,,,,,,,,,,,,,,,,
MLI,Mali,,-128000.0,-69000.0,7000.0,-334000.0,-583000.0,-886000.0,-1048000.0,-470000.0,-1288000.0,-1126000.0,1499000.0,-1073000.0,-1012000.0,1474000.0,3169000.0,1803000.0,,,,,,,,,,-834000.0,-651000.0,-2578000.0,-652000.0,-1168000.0,-1007000.0,-2351000.0,-6505000.0,129000.0,-2267000.0,1538000.0,22678000.0,3457000.0,1412000.0,7938000.0,790000.0,7457000.0,1475000.0,1062000.0,1999000.0,1634000.0,4956000.0,3067000.0,193000.0,-36000.0,,,,,,,,,,
MLT,Malta,,,,,,,,,,,,,,,,,,,,,,,,,,,,,,,,,,,,,,,,,,,,,,,,,,,,,,,,,,,,,
MMR,Myanmar,,-27179000.0,-38892000.0,-11957000.0,-14313000.0,4710000.0,128512000.0,-56925000.0,6560000.0,-5458000.0,-3891000.0,-2181000.0,1283000.0,4386000.0,1637000.0,-2635000.0,-2539000.0,-2980000.0,-2955000.0,-1681000.0,-2792000.0,-6510000.0,88643000.0,533457000.0,22092000.0,38598000.0,-4466000.0,33116000.0,-777000.0,-2260000.0,-7811000.0,-63973000.0,-29889000.0,2530000.0,-49408000.0,-52396000.0,-11900000.0,16449000.0,57229000.0,94059000.0,29784000.0,94678000.0,85355000.0,33328000.0,-9000000.0,-5433000.0,1823000.0,-13094000.0,12072000.0,13767000.0,13461000.0,,,,,,,,,,
MNA,Middle East & North Africa (excluding high income),,11187131000.0,15683334000.0,11542443000.0,-28191000.0,8393269000.0,2029154000.0,7393722000.0,5312825000.0,-1718408000.0,1929097000.0,-1478813000.0,-2922109000.0,97471000.0,-1188589000.0,1997094000.0,2591526000.0,271891000.0,4882730000.0,3898043000.0,36563000.0,-711302000.0,-21432000.0,-215513000.0,-487212000.0,1233890000.0,1194736000.0,191721000.0,1064671000.0,-1227643000.0,14911000.0,1421600000.0,3761053000.0,2227846000.0,2928286000.0,1239067000.0,1446646000.0,1247021000.0,1493308000.0,659185000.0,1915780000.0,3634018000.0,4883589000.0,4023048000.0,2295751000.0,2216030000.0,508698000.0,1207050000.0,251629000.0,240164000.0,276022000.0,,,,,,,,,,
MNE,Montenegro,,227623000.0,416093000.0,126185000.0,49041000.0,272715000.0,334193000.0,155026000.0,200298000.0,279672000.0,321112000.0,181134000.0,3548000.0,10410000.0,13735000.0,,,,,,,,,,,,,,,,,,,,,,,,,,,,,,,,,,,,,,,,,,,,,,
MNG,Mongolia,,-60049000.0,-22698000.0,1411399000.0,763396000.0,11021000.0,2858000.0,-2700000.0,1496499000.0,4700000.0,-77050000.0,-2350000.0,-2650000.0,76150000.0,12800000.0,,,,,-1158000.0,-2543000.0,-2789000.0,-14909000.0,-16197000.0,-18989000.0,-13687000.0,-24043000.0,-10286000.0,18747000.0,,,,,,,,,,,,,,,,,,,,,,,,,,,,,,,,
MNP,Northern Mariana Islands,,,,,,,,,,,,,,,,,,,,,,,,,,,,,,,,,,,,,,,,,,,,,,,,,,,,,,,,,,,,,
MOZ,Mozambique,,-185345000.0,-129201000.0,-104633000.0,-112392000.0,-106644000.0,497237000.0,1479970000.0,19001000.0,124475000.0,70832000.0,20356000.0,-846000.0,6206000.0,,,,,,,-674000.0,-442000.0,,-949000.0,-1348000.0,-9123000.0,-1798000.0,-2673000.0,-3489000.0,-12730000.0,16721000.0,20355000.0,-5078000.0,43644000.0,47845000.0,54738000.0,200620000.0,,,,,,,,,,,,,,,,,,,,,,,,
MRT,Mauritania,,,,,,,,,,-1178000.0,-11198000.0,-1347000.0,-6475000.0,-1496000.0,-1711000.0,14084000.0,211000.0,3388000.0,3691000.0,-828000.0,-2389000.0,-2125000.0,-1997000.0,-1524000.0,24492000.0,-76000.0,-57000.0,-83000.0,-2091000.0,-2406000.0,-1304000.0,-5051000.0,594000.0,-6358000.0,3397000.0,2123000.0,19613000.0,21911000.0,7052000.0,-24926000.0,236000.0,-34055000.0,19594000.0,15394000.0,1618000.0,8035000.0,1604000.0,16158000.0,-5159000.0,3081000.0,-1606000.0,,,,,,,,,,
MUS,Mauritius,,,,,,,,,,,,,,,,,,,,,,,,,,,,,,,,,,,,,,,,,,,,,,,,,,,,,,,,,,,,,
MWI,Malawi,,,,,,-1928000.0,-3077000.0,,,,,,-91000.0,-1025000.0,-1535000.0,-2531000.0,-2000000.0,0.0,0.0,0.0,0.0,387000.0,-847000.0,-1464000.0,-4002000.0,-22843000.0,-3392000.0,-12020000.0,648000.0,-9971000.0,2907000.0,6930000.0,2445000.0,-10606000.0,-31465000.0,-28879000.0,-18174000.0,-13879000.0,-15574000.0,3477000.0,20308000.0,31790000.0,48081000.0,32413000.0,19685000.0,8339000.0,977000.0,4179000.0,4092000.0,-1141000.0,1794000.0,,,,,,,,,,
MYS,Malaysia,,,,,,,,,,,,,,,,,,,,,,,,,,,,,,,,,,,,,,,,,,,,,,,,,,,,,,,,,,,,,
NAC,North America,,,,,,,,,,,,,,,,,,,,,,,,,,,,,,,,,,,,,,,,,,,,,,,,,,,,,,,,,,,,,
NAM,Namibia,,,,,,,,,,,,,,,,,,,,,,,,,,,,,,,,,,,,,,,,,,,,,,,,,,,,,,,,,,,,,
NCL,New Caledonia,,,,,,,,,,,,,,,,,,,,,,,,,,,,,,,,,,,,,,,,,,,,,,,,,,,,,,,,,,,,,
NER,Niger,,,,,,,,,,,,,,,,,,,,,,0.0,,,1500000.0,,,,,-18654000.0,3724000.0,7421000.0,-9339000.0,-8046000.0,-9018000.0,-5316000.0,-3178000.0,14756000.0,6401000.0,119751000.0,70782000.0,35926000.0,19485000.0,-2489000.0,-2348000.0,-679000.0,7518000.0,-171000.0,3497000.0,-246000.0,-565000.0,,,,,,,,,,
NGA,Nigeria,,0.0,4868352000.0,4800000000.0,0.0,0.0,500000000.0,500000000.0,,500000000.0,-3770000.0,-25930000.0,16024000.0,-577467000.0,-1540907000.0,-144928000.0,-94031000.0,-247753000.0,-609903000.0,-149893000.0,-141722000.0,-111070000.0,-14800000.0,-247874000.0,-680222000.0,-438401000.0,-305773000.0,-78999000.0,-199091000.0,-71966000.0,-105755000.0,435606000.0,156738000.0,473746000.0,-545265000.0,-918168000.0,-511208000.0,917177000.0,2448571000.0,1475594000.0,1062383000.0,860733000.0,1386551000.0,-9168000.0,-290446000.0,-162384000.0,-98528000.0,-140500000.0,10414000.0,-6440000.0,-11126000.0,,,,,,,,,,
NIC,Nicaragua,,1694000.0,11374000.0,931000.0,6338000.0,-740000.0,-884000.0,-893000.0,-849000.0,-918000.0,-884000.0,-926000.0,-979000.0,-7000.0,9011000.0,-145000.0,-3108000.0,-6223000.0,-5420000.0,-874000.0,-2098000.0,667000.0,-12670000.0,-16039000.0,-3810000.0,-81116000.0,-6377000.0,-4490000.0,-1897000.0,-3022000.0,19878000.0,11333000.0,2592000.0,7159000.0,5651000.0,13037000.0,10727000.0,27569000.0,-4718000.0,-16727000.0,-26091000.0,-5054000.0,9941000.0,116320000.0,-4211000.0,94891000.0,82546000.0,75988000.0,37363000.0,6257000.0,-783000.0,,,,,,,,,,
NLD,Netherlands,,,,,,,,,,,,,,,,,,,,,,,,,,,,,,,,,,,,,,,,,,,,,,,,,,,,,,,,,,,,,
NOR,Norway,,,,,,,,,,,,,,,,,,,,,,,,,,,,,,,,,,,,,,,,,,,,,,,,,,,,,,,,,,,,,
NPL,Nepal,,-11000.0,-12000.0,-143000.0,-193000.0,-393000.0,-497000.0,-503000.0,-497000.0,-516000.0,-490000.0,-507000.0,-536000.0,-308000.0,-457000.0,-680000.0,-296000.0,-384000.0,-321000.0,-170000.0,-7407000.0,-12672000.0,-12575000.0,-10979000.0,-3688000.0,-4908000.0,-8182000.0,-7162000.0,-7005000.0,-7310000.0,-11642000.0,-8682000.0,46616000.0,37386000.0,9120000.0,5181000.0,10550000.0,642000.0,656000.0,,,,,-620000.0,,,,,,,,,,,,,,,,,
NRU,Nauru,,,,,,,,,,,,,,,,,,,,,,,,,,,,,,,,,,,,,,,,,,,,,,,,,,,,,,,,,,,,,
NZL,New Zealand,,,,,,,,,,,,,,,,,,,,,,,,,,,,,,,,,,,,,,,,,,,,,,,,,,,,,,,,,,,,,
OED,OECD members,,,,,,,,,,,,,,,,,,,,,,,,,,,,,,,,,,,,,,,,,,,,,,,,,,,,,,,,,,,,,
OMN,Oman,,,,,,,,,,,,,,,,,,,,,,,,,,,,,,,,,,,,,,,,,,,,,,,,,,,,,,,,,,,,,
OSS,Other small states,,,,,,,,,,,,,,,,,,,,,,,,,,,,,,,,,,,,,,,,,,,,,,,,,,,,,,,,,,,,,
PAK,Pakistan,,-1932147000.0,159053000.0,3373123000.0,1042375000.0,1023814000.0,3472465000.0,130070000.0,0.0,219000.0,-673818000.0,-549160000.0,123817000.0,752401000.0,796144000.0,468634000.0,232252000.0,-281108000.0,-480200000.0,-241948000.0,-33050000.0,-52221000.0,86506000.0,901330000.0,188211000.0,-54755000.0,-214727000.0,436751000.0,211081000.0,-89666000.0,-108306000.0,-54626000.0,-189037000.0,114278000.0,34126000.0,-193561000.0,169626000.0,-81165000.0,436600000.0,-23863000.0,164173000.0,28132000.0,9029000.0,68924000.0,18796000.0,17630000.0,50953000.0,-28068000.0,-11075000.0,68503000.0,41533000.0,,,,,,,,,,
PAN,Panama,,,,,,,,,,,,,,,,,,,,,,,,,,,,,,,,,,,,,,,,,,,,,,,,,,,,,,,,,,,,,
PER,Peru,,37032000.0,-246527000.0,2149771000.0,807558000.0,3242451000.0,-388601000.0,-402613000.0,579883000.0,-9878000.0,1756099000.0,1991081000.0,-1347193000.0,-247638000.0,-113877000.0,1535284000.0,1214949000.0,1175458000.0,689333000.0,-30055000.0,-113049000.0,-305927000.0,-47486000.0,-788370000.0,-553266000.0,-64503000.0,-109205000.0,-85552000.0,-107283000.0,10539000.0,71812000.0,78241000.0,28334000.0,67334000.0,192543000.0,219448000.0,665447000.0,1009638000.0,994302000.0,40015000.0,-94188000.0,436172000.0,81529000.0,318822000.0,432188000.0,526936000.0,554041000.0,303620000.0,100380000.0,-17164000.0,11133000.0,,,,,,,,,,
PHL,Philippines,,1495753000.0,1725995000.0,325850000.0,-728192000.0,2497702000.0,495434000.0,-531520000.0,1517450000.0,415286000.0,1885220000.0,3655748000.0,-593898000.0,231340000.0,2152656000.0,1164085000.0,2254499000.0,1347944000.0,1180358000.0,502040000.0,2759798000.0,4901866000.0,912464000.0,1219040000.0,683969000.0,20568000.0,34418000.0,-267317000.0,-1472476000.0,-294804000.0,-120016000.0,-187324000.0,-635435000.0,-592061000.0,381821000.0,664131000.0,313336000.0,788030000.0,1051699000.0,505739000.0,794063000.0,721963000.0,682977000.0,445092000.0,534521000.0,174690000.0,103576000.0,-77711000.0,3826000.0,-21182000.0,7295000.0,,,,,,,,,,
PLW,Palau,,,,,,,,,,,,,,,,,,,,,,,,,,,,,,,,,,,,,,,,,,,,,,,,,,,,,,,,,,,,,
PNG,Papua New Guinea,,116420000.0,689638000.0,128843000.0,216196000.0,-362000.0,-6151000.0,-6505000.0,-8211000.0,-8068000.0,-7348000.0,-6911000.0,-6298000.0,-5241000.0,-5745000.0,-37205000.0,-50443000.0,-37030000.0,5424000.0,17191000.0,72224000.0,-16109000.0,-19900000.0,-54237000.0,-54334000.0,-108583000.0,-25000.0,-64800000.0,-36618000.0,-58006000.0,-90561000.0,10259000.0,-79214000.0,-48481000.0,15001000.0,9004000.0,5974000.0,113938000.0,91481000.0,104016000.0,54669000.0,18260000.0,-2634000.0,21682000.0,16445000.0,23495000.0,21467000.0,52411000.0,9465000.0,28567000.0,37244000.0,,,,,,,,,,
POL,Poland,,,,,,,,,,,,,,,,,,,,,,,,,,,,,,,,,,,,,,,,,,,,,,,,,,,,,,,,,,,,,
PRE,Pre-demographic dividend,,,,,,,,,,,,,,,,,,,,,,,,,,,,,,,,,,,,,,,,,,,,,,,,,,,,,,,,,,,,,
PRI,Puerto Rico,,,,,,,,,,,,,,,,,,,,,,,,,,,,,,,,,,,,,,,,,,,,,,,,,,,,,,,,,,,,,
PRK,"Korea, Dem. People's Rep.",,,,,,,,,,,,,,,,,,,,,,,,,,,,,,,,,,,,,,,,,,,,,,,,,,,,,,,,,,,,,
PRT,Portugal,,,,,,,,,,,,,,,,,,,,,,,,,,,,,,,,,,,,,,,,,,,,,,,,,,,,,,,,,,,,,
PRY,Paraguay,,487097000.0,504194000.0,474194000.0,561290000.0,267097000.0,961179000.0,461290000.0,-39453000.0,-33615000.0,-15145000.0,-41211000.0,-28308000.0,-28334000.0,-29027000.0,-17415000.0,-9030000.0,6641000.0,-5371000.0,-6045000.0,-6440000.0,380336000.0,-12611000.0,-4507000.0,-21933000.0,-21613000.0,-34134000.0,-55057000.0,-163797000.0,-53181000.0,293000.0,35221000.0,-32700000.0,37226000.0,46549000.0,1145000.0,45877000.0,73691000.0,137899000.0,67118000.0,75767000.0,47261000.0,36992000.0,7710000.0,8986000.0,13722000.0,3990000.0,183000.0,-287000.0,468000.0,3446000.0,,,,,,,,,,
PSE,West Bank and Gaza,,,,,,,,,,,,,,,,,,,,,,,,,,,,,,,,,,,,,,,,,,,,,,,,,,,,,,,,,,,,,
PSS,Pacific island small states,,,,,,,,,,,,,,,,,,,,,,,,,,,,,,,,,,,,,,,,,,,,,,,,,,,,,,,,,,,,,
PST,Post-demographic dividend,,,,,,,,,,,,,,,,,,,,,,,,,,,,,,,,,,,,,,,,,,,,,,,,,,,,,,,,,,,,,
PYF,French Polynesia,,,,,,,,,,,,,,,,,,,,,,,,,,,,,,,,,,,,,,,,,,,,,,,,,,,,,,,,,,,,,
QAT,Qatar,,,,,,,,,,,,,,,,,,,,,,,,,,,,,,,,,,,,,,,,,,,,,,,,,,,,,,,,,,,,,
ROU,Romania,,,,,,,,,,,,,,,,,,,,,,,,,,,,,,,,,,,,,,,,,,,,,,,,,,,,,,,,,,,,,
RUS,Russian Federation,,17219128000.0,-42434774000.0,31362359000.0,-4385871000.0,-34643177000.0,-44558802000.0,46482392000.0,15488345000.0,11350315000.0,19577335000.0,2986243000.0,1573465000.0,29618928000.0,19315362000.0,7203314000.0,2161163000.0,-130141000.0,2224912000.0,90281000.0,-564722000.0,-494943000.0,7423010000.0,2880510000.0,244799000.0,-254701000.0,-314583000.0,2468313000.0,9334506000.0,,,,,,,,,,,,,,,,,,,,,,,,,,,,,,,,
RWA,Rwanda,,64093000.0,0.0,,,,,400000000.0,,,,,,,,,0.0,0.0,0.0,0.0,0.0,0.0,,,,,,,-1010000.0,-951000.0,-1814000.0,-2497000.0,-2678000.0,-120000.0,-4821000.0,-2599000.0,5824000.0,-501000.0,3037000.0,-307000.0,-2333000.0,-967000.0,4087000.0,3893000.0,-369000.0,-183000.0,-165000.0,1855000.0,637000.0,-156000.0,-92000.0,,,,,,,,,,
SAS,South Asia,,8366008000.0,-3266350000.0,29831424000.0,-7682635000.0,12409439000.0,36883986000.0,5354529000.0,12694362000.0,5158806000.0,14395135000.0,1839044000.0,2692493000.0,6324655000.0,3316680000.0,-6409382000.0,1122420000.0,-4022160000.0,-19891000.0,-1884474000.0,4049665000.0,-1050585000.0,3231263000.0,517250000.0,-473556000.0,248899000.0,417815000.0,2454992000.0,1768017000.0,1441229000.0,1645643000.0,2829384000.0,5552205000.0,2863616000.0,3013559000.0,1921031000.0,2108810000.0,1210756000.0,1729197000.0,668363000.0,853810000.0,51586000.0,-5547000.0,73831000.0,15876000.0,19552000.0,108339000.0,-66093000.0,-50042000.0,53941000.0,-10345000.0,,,,,,,,,,
SAU,Saudi Arabia,,,,,,,,,,,,,,,,,,,,,,,,,,,,,,,,,,,,,,,,,,,,,,,,,,,,,,,,,,,,,
SDN,Sudan,,0.0,0.0,0.0,,,,,,,,,,,,,,,,,543279000.0,0.0,,,,,,,,,,,,,-5000000.0,,-547000.0,-1562000.0,115440000.0,179566000.0,137637000.0,46574000.0,31088000.0,51924000.0,90954000.0,190360000.0,197492000.0,35573000.0,8912000.0,1837000.0,-3220000.0,,,,,,,,,,
SEN,Senegal,,699740000.0,2358705000.0,1125966000.0,1952000.0,,499975000.0,,1963000.0,500000000.0,-1782000.0,197349000.0,-2714000.0,-4463000.0,1571000.0,-2488000.0,-1743000.0,18000.0,798000.0,6973000.0,4715000.0,-461000.0,-721000.0,-1635000.0,-6606000.0,-21377000.0,-3340000.0,-4728000.0,-21013000.0,-28512000.0,-18554000.0,-50650000.0,-49573000.0,-22621000.0,27528000.0,-10767000.0,-5819000.0,49321000.0,-2208000.0,-17828000.0,7676000.0,47521000.0,92788000.0,42358000.0,42521000.0,20852000.0,36024000.0,53362000.0,6127000.0,14128000.0,7028000.0,,,,,,,,,,
SGP,Singapore,,,,,,,,,,,,,,,,,,,,,,,,,,,,,,,,,,,,,,,,,,,,,,,,,,,,,,,,,,,,,
SLB,Solomon Islands,,,,,,,,,,-59000.0,-189000.0,-196000.0,-116000.0,-426000.0,571000.0,-2136000.0,,,,,,-424000.0,-383000.0,,-872000.0,3767000.0,-3144000.0,190000.0,-1393000.0,-3135000.0,-3146000.0,-1722000.0,-384000.0,,7114000.0,6000000.0,5000000.0,,,,,,,,,,,,,,,,,,,,,,,,
SLE,Sierra Leone,,,,,,,,,,,,,,0.0,-43000.0,,,-454000.0,,0.0,0.0,0.0,0.0,-2000.0,,-28798000.0,-490000.0,,,,4000000.0,10727000.0,-1028000.0,-1806000.0,-1589000.0,-3961000.0,-3668000.0,-7482000.0,11043000.0,10187000.0,16008000.0,26262000.0,19959000.0,7821000.0,-3116000.0,8670000.0,26653000.0,5414000.0,1019000.0,-3296000.0,-6125000.0,,,,,,,,,,
SLV,El Salvador,,210285000.0,3075000.0,569588000.0,-1257000.0,-5230000.0,806870000.0,-1665000.0,650058000.0,432691000.0,332004000.0,-4146000.0,60850000.0,-59948000.0,497523000.0,361339000.0,275496000.0,334534000.0,1241960000.0,361219000.0,115827000.0,157200000.0,-65451000.0,3812000.0,25146000.0,-27847000.0,-59865000.0,977000.0,-5272000.0,21687000.0,19012000.0,57179000.0,-1814000.0,-33881000.0,-42397000.0,-41151000.0,-25601000.0,-6489000.0,69871000.0,11738000.0,19312000.0,278000.0,-4959000.0,-47622000.0,22941000.0,-21461000.0,60158000.0,-9511000.0,3366000.0,735000.0,-1638000.0,,,,,,,,,,
SMR,San Marino,,,,,,,,,,,,,,,,,,,,,,,,,,,,,,,,,,,,,,,,,,,,,,,,,,,,,,,,,,,,,
SOM,Somalia,,,,0.0,0.0,0.0,,0.0,,0.0,0.0,0.0,0.0,0.0,0.0,0.0,0.0,0.0,0.0,0.0,0.0,0.0,,,,,,,,,,,,,,,-300000.0,2432000.0,38204000.0,141977000.0,26766000.0,,232000.0,-700000.0,-417000.0,-801000.0,132000.0,3513000.0,2224000.0,-502000.0,-498000.0,,,,,,,,,,
SRB,Serbia,,44404000.0,-1190049000.0,-1177043000.0,-214927000.0,-105438000.0,-219211000.0,2115904000.0,1695674000.0,1271104000.0,146749000.0,134746000.0,1309000.0,33788000.0,50002000.0,-222000.0,0.0,0.0,,0.0,35000000.0,0.0,0.0,,,,,,,-506802000.0,-909172000.0,-583694000.0,146753000.0,-422342000.0,-784682000.0,43562000.0,99420000.0,636831000.0,235584000.0,291919000.0,625317000.0,-33182000.0,-23735000.0,-39666000.0,9329000.0,-35192000.0,-75252000.0,7523000.0,107152000.0,-6638000.0,-42012000.0,,,,,,,,,,
SSA,Sub-Saharan Africa (excluding high income),,20176721000.0,10857349000.0,18928393000.0,7367899000.0,-4668907000.0,15818718000.0,11500880000.0,18019067000.0,15380446000.0,8468804000.0,1192474000.0,7107978000.0,2007352000.0,-3819248000.0,1264572000.0,1765594000.0,347069000.0,825013000.0,-255021000.0,9681000.0,1381977000.0,-26831000.0,7257672000.0,-476252000.0,1333957000.0,1271232000.0,722285000.0,539444000.0,327549000.0,294472000.0,1113380000.0,1241704000.0,1073366000.0,708524000.0,291925000.0,299648000.0,1816847000.0,4501294000.0,3088702000.0,3561663000.0,2854645000.0,3264119000.0,1570720000.0,979161000.0,1068123000.0,686863000.0,503683000.0,344686000.0,218067000.0,316603000.0,,,,,,,,,,
SSD,South Sudan,,,,,,,,,,,,,,,,,,,,,,,,,,,,,,,,,,,,,,,,,,,,,,,,,,,,,,,,,,,,,
SSF,Sub-Saharan Africa,,,,,,,,,,,,,,,,,,,,,,,,,,,,,,,,,,,,,,,,,,,,,,,,,,,,,,,,,,,,,
SST,Small states,,,,,,,,,,,,,,,,,,,,,,,,,,,,,,,,,,,,,,,,,,,,,,,,,,,,,,,,,,,,,
STP,Sao Tome and Principe,,,,,,10000000.0,,,,,,,,,,,,,,,,,,,,,,,,,-114000.0,-411000.0,-35000.0,-70000.0,1097000.0,-174000.0,5402000.0,-180000.0,-58000.0,357000.0,28000.0,52000.0,88000.0,154000.0,,,,,,,,,,,,,,,,,
SUR,Suriname,,,,,,,,,,,,,,,,,,,,,,,,,,,,,,,,,,,,,,,,,,,,,,,,,,,,,,,,,,,,,
SVK,Slovak Republic,,,,,,,,,,,,,,,,,,,,,,,,,,,,,,,,,,,,,,,,,,,,,,,,,,,,,,,,,,,,,
SVN,Slovenia,,,,,,,,,,,,,,,,,,,,,,,,,,,,,,,,,,,,,,,,,,,,,,,,,,,,,,,,,,,,,
SWE,Sweden,,,,,,,,,,,,,,,,,,,,,,,,,,,,,,,,,,,,,,,,,,,,,,,,,,,,,,,,,,,,,
SWZ,Eswatini,,0.0,-1197000.0,-591000.0,-779000.0,-912000.0,-1067000.0,-1149000.0,-1367000.0,-1527000.0,-1584000.0,-1386000.0,-1421000.0,-1645000.0,-1722000.0,-1232000.0,-435000.0,5204000.0,7387000.0,8590000.0,,,,32586000.0,-259000.0,-306000.0,-1518000.0,-1542000.0,-1555000.0,-1543000.0,-1935000.0,-1591000.0,-1701000.0,-12335000.0,-2466000.0,9237000.0,5181000.0,-3923000.0,-4000000.0,-5022000.0,-2638000.0,-1721000.0,27446000.0,-95000.0,-102000.0,-1187000.0,-2548000.0,-7396000.0,-2473000.0,-1792000.0,-1015000.0,,,,,,,,,,
SXM,Sint Maarten (Dutch part),,,,,,,,,,,,,,,,,,,,,,,,,,,,,,,,,,,,,,,,,,,,,,,,,,,,,,,,,,,,,
SYC,Seychelles,,,,,,,,,,,,,,,,,,,,,,,,,,,,,,,,,,,,,,,,,,,,,,,,,,,,,,,,,,,,,
SYR,Syrian Arab Republic,,-612000.0,-1519000.0,-296000.0,-45000.0,0.0,0.0,0.0,0.0,-2332000.0,-2315000.0,-2437000.0,-2478000.0,,,,,,,,,,,,,,,,,,,,,,,,,,,,,,,,,,,,,,,,,,,,,,,,
TCA,Turks and Caicos Islands,,,,,,,,,,,,,,,,,,,,,,,,,,,,,,,,,,,,,,,,,,,,,,,,,,,,,,,,,,,,,
TCD,Chad,,0.0,0.0,0.0,0.0,,931489000.0,597499000.0,-1875000.0,-5000000.0,-2000000.0,-1000000.0,,,-500000.0,,,20000000.0,,0.0,-67000.0,-22000.0,,,-121000.0,-32000.0,-262000.0,-1198000.0,-334000.0,-448000.0,-561000.0,-597000.0,766000.0,2967000.0,,-5790000.0,-2740000.0,2137000.0,2081000.0,5744000.0,,8838000.0,14397000.0,6546000.0,1585000.0,-296000.0,8492000.0,-212000.0,-1800000.0,9355000.0,2025000.0,,,,,,,,,,
TEA,East Asia & Pacific (IDA & IBRD countries),,,,,,,,,,,,,,,,,,,,,,,,,,,,,,,,,,,,,,,,,,,,,,,,,,,,,,,,,,,,,
TEC,Europe & Central Asia (IDA & IBRD countries),,,,,,,,,,,,,,,,,,,,,,,,,,,,,,,,,,,,,,,,,,,,,,,,,,,,,,,,,,,,,
TGO,Togo,,112469000.0,-7217000.0,-10436000.0,-10980000.0,1603000.0,-11961000.0,48343000.0,,,,,,,,,,,,,,,,-6065000.0,,,,,,,-120000.0,-2287000.0,-1849000.0,-8000000.0,-22532000.0,-13519000.0,-11828000.0,-3876000.0,-6097000.0,-7054000.0,40928000.0,124439000.0,159583000.0,90282000.0,55244000.0,32702000.0,18607000.0,3228000.0,725000.0,91000.0,-499000.0,,,,,,,,,,
THA,Thailand,,3644000000.0,6854639000.0,6243027000.0,681355000.0,-811102000.0,-105914000.0,-339547000.0,6663423000.0,4472531000.0,4811714000.0,1278822000.0,198908000.0,-581539000.0,-954284000.0,849222000.0,-45952000.0,-922215000.0,-688337000.0,-1247028000.0,-484446000.0,-646267000.0,2824996000.0,994790000.0,855840000.0,374701000.0,-99230000.0,81323000.0,508072000.0,210467000.0,-1192908000.0,-14483000.0,279089000.0,97468000.0,-240982000.0,918003000.0,119463000.0,55754000.0,446016000.0,554541000.0,595397000.0,609598000.0,329036000.0,70326000.0,89912000.0,18849000.0,8527000.0,-3971000.0,757000.0,2491000.0,6502000.0,,,,,,,,,,
TJK,Tajikistan,,0.0,-83000.0,499842000.0,-263000.0,2356000.0,9388000.0,36000.0,8546000.0,-331000.0,-318000.0,4011000.0,-353000.0,-329000.0,-3487000.0,184000.0,-330000.0,-14997000.0,1181000.0,,,-4470000.0,-8050000.0,,,,,68000000.0,,,,,,,,,,,,,,,,,,,,,,,,,,,,,,,,,
TKM,Turkmenistan,,-24509000.0,269600000.0,,,,,,,,-15391000.0,-15392000.0,-15392000.0,-18777000.0,-28356000.0,-57537000.0,-182057000.0,-246481000.0,-313447000.0,-348973000.0,-260249000.0,47993000.0,390528000.0,786610000.0,165958000.0,19998000.0,14164000.0,82025000.0,,,,,,,,,,,,,,,,,,,,,,,,,,,,,,,,,
TLA,Latin America & the Caribbean (IDA & IBRD countries),,,,,,,,,,,,,,,,,,,,,,,,,,,,,,,,,,,,,,,,,,,,,,,,,,,,,,,,,,,,,
TLS,Timor-Leste,,,,,,,,,,,,,,,,,,,,,,,,,,,,,,,,,,,,,,,,,,,,,,,,,,,,,,,,,,,,,
TMN,Middle East & North Africa (IDA & IBRD countries),,,,,,,,,,,,,,,,,,,,,,,,,,,,,,,,,,,,,,,,,,,,,,,,,,,,,,,,,,,,,
TON,Tonga,,,,,,-130000.0,-428000.0,-270000.0,-199000.0,-80000.0,144000.0,778000.0,,,,,,,,,-1257000.0,-1256000.0,-843000.0,-1123000.0,171000.0,,,,,,,,,,,,,,,,,,,,,,,,,,,,,,,,,,,,
TSA,South Asia (IDA & IBRD),,,,,,,,,,,,,,,,,,,,,,,,,,,,,,,,,,,,,,,,,,,,,,,,,,,,,,,,,,,,,
TSS,Sub-Saharan Africa (IDA & IBRD countries),,,,,,,,,,,,,,,,,,,,,,,,,,,,,,,,,,,,,,,,,,,,,,,,,,,,,,,,,,,,,
TTO,Trinidad and Tobago,,,,,,,,,,,,,,,,,,,,,,,,,,,,,,,,,,,,,,,,,,,,,,,,,,,,,,,,,,,,,
TUN,Tunisia,,-25699000.0,512431000.0,1275401000.0,416220000.0,1224799000.0,1164972000.0,-214001000.0,609086000.0,-852746000.0,-470763000.0,-335265000.0,2708000.0,-60248000.0,-104235000.0,27461000.0,282890000.0,564612000.0,532894000.0,323905000.0,-69193000.0,211490000.0,-17856000.0,587383000.0,384851000.0,497296000.0,-115346000.0,-92759000.0,78799000.0,-162358000.0,-190292000.0,-131219000.0,27757000.0,-97618000.0,107707000.0,74487000.0,-140364000.0,288307000.0,54770000.0,95732000.0,89302000.0,331943000.0,267809000.0,329543000.0,55004000.0,20091000.0,9234000.0,-7099000.0,-25252000.0,-2260000.0,1132000.0,,,,,,,,,,
TUR,Turkey,,4179652000.0,4080345000.0,5314907000.0,5121467000.0,1631090000.0,4909064000.0,5512560000.0,5556984000.0,2153847000.0,4734960000.0,342110000.0,676799000.0,5345599000.0,2777603000.0,394155000.0,1303339000.0,726640000.0,613434000.0,-1165893000.0,7503628000.0,4420488000.0,-121702000.0,2628392000.0,2115040000.0,56986000.0,106513000.0,3527218000.0,2100896000.0,576756000.0,803608000.0,1468205000.0,2970279000.0,1128951000.0,1096258000.0,92599000.0,250721000.0,133730000.0,132617000.0,-24178000.0,595792000.0,2994533000.0,324259000.0,418259000.0,157167000.0,-26380000.0,23383000.0,11757000.0,16087000.0,46984000.0,-12815000.0,,,,,,,,,,
TUV,Tuvalu,,,,,,,,,,,,,,,,,,,,,,,,,,,,,,,,,,,,,,,,,,,,,,,,,,,,,,,,,,,,,
TZA,Tanzania,,560605000.0,-421859000.0,296049000.0,-179682000.0,-37350000.0,-501000.0,788515000.0,195028000.0,296855000.0,130000.0,16940000.0,,2297000.0,10973000.0,19084000.0,5142000.0,19244000.0,-17726000.0,-16982000.0,-11511000.0,-12331000.0,-13762000.0,-17631000.0,-15819000.0,18469000.0,2262000.0,18306000.0,-44522000.0,-7645000.0,5532000.0,26300000.0,27274000.0,37943000.0,68379000.0,46604000.0,32775000.0,23012000.0,27209000.0,76058000.0,84464000.0,65066000.0,55320000.0,30022000.0,22248000.0,2341000.0,1824000.0,422000.0,267000.0,4441000.0,5600000.0,,,,,,,,,,
UGA,Uganda,,34023000.0,43580000.0,7373000.0,558000.0,,,,,,-199000.0,-255000.0,-554000.0,-786000.0,-720000.0,-712000.0,-716000.0,-711000.0,-611000.0,3294000.0,-1297000.0,-1360000.0,-1718000.0,-1434000.0,-7105000.0,-8769000.0,-15176000.0,898000.0,-8363000.0,-24982000.0,16298000.0,5100000.0,-718000.0,119555000.0,34602000.0,5815000.0,5552000.0,-8504000.0,27588000.0,-12196000.0,44239000.0,41039000.0,83743000.0,34356000.0,4799000.0,-2818000.0,11990000.0,-13926000.0,1412000.0,5228000.0,6169000.0,,,,,,,,,,
UKR,Ukraine,,2825351000.0,1023414000.0,1423685000.0,1283627000.0,1065453000.0,47000.0,5356040000.0,2398893000.0,2499210000.0,2756033000.0,-1589340000.0,-744308000.0,3198943000.0,1683297000.0,185885000.0,1906321000.0,354804000.0,63575000.0,-145044000.0,-9917000.0,-510941000.0,1451152000.0,579904000.0,-6338000.0,-248565000.0,174769000.0,433628000.0,364818000.0,,,,,,,,,,,,,,,,,,,,,,,,,,,,,,,,
UMC,Upper middle income,,122847697000.0,103392668000.0,163155436000.0,95754041000.0,11105816000.0,89614236000.0,147923415000.0,158071388000.0,95094557000.0,74981285000.0,27609176000.0,16021848000.0,47914739000.0,7842808000.0,29547281000.0,18593574000.0,6596434000.0,-495639000.0,4493177000.0,22781145000.0,19837918000.0,28394507000.0,40012242000.0,35805442000.0,16850640000.0,16802601000.0,20866709000.0,18407994000.0,5220860000.0,7406489000.0,5974359000.0,16606712000.0,14348628000.0,7065383000.0,10560352000.0,17837708000.0,16629231000.0,22618452000.0,18561483000.0,19073240000.0,20767289000.0,15188672000.0,12496666000.0,11900300000.0,8618212000.0,5931343000.0,4219573000.0,3147299000.0,1350585000.0,983076000.0,,,,,,,,,,
URY,Uruguay,,,,,,,,,,,,,,,,,,,,,,,,,,,,,,,,,,,,,,,,,,,,,,,,,,,,,,,,,,,,,
USA,United States,,,,,,,,,,,,,,,,,,,,,,,,,,,,,,,,,,,,,,,,,,,,,,,,,,,,,,,,,,,,,
UZB,Uzbekistan,,36132000.0,-72001000.0,-23502000.0,23477000.0,89062000.0,79587000.0,-42231000.0,-66111000.0,6376000.0,-99082000.0,-152560000.0,-181218000.0,-255558000.0,-324348000.0,-271724000.0,-178046000.0,-81152000.0,-85747000.0,51643000.0,7197000.0,503401000.0,270332000.0,102746000.0,375559000.0,192455000.0,50560000.0,150950000.0,,,,,,,,,,,,,,,,,,,,,,,,,,,,,,,,,
VCT,St. Vincent and the Grenadines,,-2564000.0,-3812000.0,6964000.0,-3387000.0,-6387000.0,-398000.0,-7901000.0,-12423000.0,-10925000.0,-11110000.0,-10739000.0,5875000.0,-11253000.0,-14621000.0,22277000.0,24470000.0,20682000.0,7515000.0,-400000.0,-400000.0,57482000.0,-400000.0,-1560000.0,,51000.0,4749000.0,-19000.0,,,,,-277000.0,-136000.0,-119000.0,-109000.0,-116000.0,-236000.0,-547000.0,945000.0,135000.0,223000.0,,,,,,,,,360000.0,,,,,,,,,,
VEN,"Venezuela, RB",,0.0,0.0,-13000.0,-12000.0,-2293572000.0,2132928000.0,-749058000.0,3589045000.0,8149967000.0,8045872000.0,8221627000.0,2013296000.0,2844847000.0,-1245234000.0,3907873000.0,1746756000.0,1944261000.0,-1481020000.0,-215332000.0,1098689000.0,-187582000.0,159457000.0,7725110000.0,1410149000.0,-260755000.0,207962000.0,1005283000.0,622187000.0,152239000.0,-403536000.0,337303000.0,399048000.0,-835994000.0,-871216000.0,-531166000.0,-370805000.0,1534465000.0,740116000.0,1050319000.0,1113679000.0,3127495000.0,2177667000.0,1487278000.0,806943000.0,-352645000.0,-200730000.0,65686000.0,341851000.0,267567000.0,169339000.0,,,,,,,,,,
VGB,British Virgin Islands,,,,,,,,,,,,,,,,,,,,,,,,,,,,,,,,,,,,,,,,,,,,,,,,,,,,,,,,,,,,,
VIR,Virgin Islands (U.S.),,,,,,,,,,,,,,,,,,,,,,,,,,,,,,,,,,,,,,,,,,,,,,,,,,,,,,,,,,,,,
VNM,Vietnam,,-665334000.0,-768790000.0,-750059000.0,-924419000.0,-240332000.0,844730000.0,1701170000.0,809290000.0,409396000.0,1608868000.0,426576000.0,460404000.0,278624000.0,-87166000.0,603161000.0,-6335000.0,-304882000.0,-667257000.0,-599603000.0,-712271000.0,-783780000.0,-365266000.0,318918000.0,216879000.0,356013000.0,-29348000.0,-36708000.0,139647000.0,49959000.0,-41000.0,-3298000.0,,,,,,,,,,,,,,,,,,,,,,,,,,,,,
VUT,Vanuatu,,,,,,,,,,,,,,,,,,,,,,-79000.0,-80000.0,-118000.0,-149000.0,-178000.0,-203000.0,-198000.0,-203000.0,-215000.0,-210000.0,8000.0,179000.0,67000.0,-218000.0,-103000.0,1325000.0,422000.0,-22000.0,-25000.0,,,,,,,,,,,,,,,,,,,,,
WLD,World,,,,,,,,,,,,,,,,,,,,,,,,,,,,,,,,,,,,,,,,,,,,,,,,,,,,,,,,,,,,,
WSM,Samoa,,,,,,,,,,,,,,,,,,,,,,,,,,,-594000.0,-270000.0,-431000.0,,,-400000.0,-400000.0,-400000.0,-924000.0,-998000.0,1983000.0,-1530000.0,-993000.0,-1110000.0,-1823000.0,-1781000.0,653000.0,1771000.0,527000.0,-383000.0,2426000.0,4793000.0,1889000.0,-72000.0,-75000.0,,,,,,,,,,
XKX,Kosovo,,8105000.0,0.0,618000.0,3912000.0,1064000.0,2658000.0,,,,,,,,,,,,,,,,,,,,,,,,,,,,,,,,,,,,,,,,,,,,,,,,,,,,,,
YEM,"Yemen, Rep.",,,,,,,-575000.0,-908000.0,-933000.0,-1010000.0,-971000.0,-1020000.0,-1077000.0,-1003000.0,-375000.0,-69000.0,0.0,0.0,0.0,-6702000.0,-263000.0,5052000.0,1762000.0,1000.0,,-1829000.0,-5148000.0,9767000.0,6263000.0,47162000.0,160997000.0,227987000.0,328645000.0,173733000.0,128869000.0,5805000.0,11704000.0,13790000.0,90278000.0,102350000.0,63123000.0,141682000.0,1828000.0,12654000.0,-813000.0,-35000.0,-96000.0,3690000.0,-226000.0,-226000.0,,,,,,,,,,,
ZAF,South Africa,,12585663000.0,-5219448000.0,11137545000.0,7981200000.0,-11693689000.0,4052946000.0,2318714000.0,13732498000.0,12456677000.0,6368145000.0,151925000.0,4422833000.0,269982000.0,-630766000.0,-188111000.0,807492000.0,2002000.0,1530877000.0,-192719000.0,-9266000.0,1604112000.0,216367000.0,7192883000.0,584753000.0,2030408000.0,1923609000.0,,,,,,,,,,,,,,,,,,,,,,,,,,,,,,,,,,
ZMB,Zambia,,186280000.0,663525000.0,1261942000.0,31263000.0,1265250000.0,1000020000.0,250000000.0,750000000.0,-2336000.0,-2336000.0,-2336000.0,7009000.0,,-1824000.0,-19898000.0,-2802000.0,-124178000.0,16084000.0,-1775000.0,-822000.0,-3527000.0,-50295000.0,-6060000.0,-31127000.0,-39286000.0,-27381000.0,-38677000.0,-23460000.0,-9044000.0,-11250000.0,10121000.0,-32719000.0,-38962000.0,113492000.0,4108000.0,37886000.0,35117000.0,61784000.0,16175000.0,140942000.0,26252000.0,-104380000.0,-17523000.0,39676000.0,227281000.0,-35755000.0,-75681000.0,13239000.0,-24011000.0,311767000.0,,,,,,,,,,
ZWE,Zimbabwe,,-5810000.0,0.0,-10898000.0,36000000.0,3949000.0,1277000.0,-4777000.0,17000.0,4589000.0,523000.0,0.0,0.0,0.0,118000.0,3303000.0,2576000.0,-13378000.0,612000.0,5726000.0,-13642000.0,-35798000.0,-32364000.0,-70170000.0,-63936000.0,-25455000.0,-65797000.0,-122819000.0,3018000.0,15260000.0,-11456000.0,36007000.0,-128187000.0,-111275000.0,-103096000.0,-68332000.0,-39519000.0,189132000.0,328453000.0,223175000.0,20586000.0,97011000.0,274436000.0,-135000.0,-157000.0,-173000.0,-218000.0,-1378000.0,-470000.0,-516000.0,-252000.0,,,,,,,,,,
