economy,Country Name,YR2020,YR2019,YR2018,YR2017,YR2016,YR2015,YR2014,YR2013,YR2012,YR2011,YR2010,YR2009,YR2008,YR2007,YR2006,YR2005,YR2004,YR2003,YR2002,YR2001,YR2000,YR1999,YR1998,YR1997,YR1996,YR1995,YR1994,YR1993,YR1992,YR1991,YR1990,YR1989,YR1988,YR1987,YR1986,YR1985,YR1984,YR1983,YR1982,YR1981,YR1980,YR1979,YR1978,YR1977,YR1976,YR1975,YR1974,YR1973,YR1972,YR1971,YR1970,YR1969,YR1968,YR1967,YR1966,YR1965,YR1964,YR1963,YR1962,YR1961,YR1960
ABW,Aruba,,,,,,,,,,,,,,,,,,,,,,,,,,,,,,,,,,,,,,,,,,,,,,,,,,,,,,,,,,,,,
AFE,Africa Eastern and Southern,,,,,,,,,,,,,,,,,,,,,,,,,,,,,,,,,,,,,,,,,,,,,,,,,,,,,,,,,,,,,
AFG,Afghanistan,,,,,,,,,,,,,,,,,,,,,,,,,,,,,,,,,,,,,,,,,,,,,,,,,,,,,,,,,,,,,
AFW,Africa Western and Central,,,,,,,,,,,,,,,,,,,,,,,,,,,,,,,,,,,,,,,,,,,,,,,,,,,,,,,,,,,,,
AGO,Angola,,-457766000.0,-937009000.0,-548913000.0,-345868000.0,-79037000.0,1047286000.0,39109000.0,991699000.0,82190000.0,226905000.0,-17266000.0,107629000.0,-38039000.0,-451090000.0,-9820000.0,-153331000.0,-231735000.0,-65196000.0,-58819000.0,-112383000.0,-20475000.0,12865000.0,-117090000.0,-171793000.0,-175967000.0,-27791000.0,591933000.0,446205000.0,17822000.0,562477000.0,324688000.0,,,,,,,,,,,,,,,,,,,,,,,,,,,,,
ALB,Albania,,855000.0,5271000.0,0.0,-153000.0,-230000.0,-161000.0,-201000.0,200000.0,1325000.0,705000.0,2301000.0,2926000.0,-2680000.0,-3271000.0,-574000.0,-1851000.0,803000.0,-284000.0,-270000.0,-1017000.0,-1637000.0,-1771000.0,-1147000.0,4474000.0,-412000.0,-8084000.0,11131000.0,3165000.0,28378000.0,,,,,,,,,,,,,,,,,,,,,,,,,,,,,,,
AND,Andorra,,,,,,,,,,,,,,,,,,,,,,,,,,,,,,,,,,,,,,,,,,,,,,,,,,,,,,,,,,,,,
ARB,Arab World,,,,,,,,,,,,,,,,,,,,,,,,,,,,,,,,,,,,,,,,,,,,,,,,,,,,,,,,,,,,,
ARE,United Arab Emirates,,,,,,,,,,,,,,,,,,,,,,,,,,,,,,,,,,,,,,,,,,,,,,,,,,,,,,,,,,,,,
ARG,Argentina,,-544385000.0,-558620000.0,-326587000.0,-512368000.0,-192769000.0,-11696000.0,-46948000.0,-65896000.0,-43564000.0,-32839000.0,-54589000.0,,-160000.0,-1104000.0,-1099000.0,-958000.0,-2270000.0,-4251000.0,-39656000.0,-42463000.0,-54329000.0,-76872000.0,-79225000.0,-121303000.0,-60227000.0,21694000.0,1390000.0,-2730000.0,-95749000.0,-36279000.0,-29935000.0,-42412000.0,-94534000.0,28911000.0,117282000.0,-95158000.0,-136542000.0,195211000.0,208130000.0,-15587000.0,63315000.0,472909000.0,163344000.0,-2331000.0,56197000.0,-65368000.0,84832000.0,-18819000.0,-55444000.0,3936000.0,,,,,,,,,,
ARM,Armenia,,0.0,0.0,,,,,,-4000.0,-7000.0,-6000.0,-6000.0,-252000.0,-111000.0,,,-1329000.0,-14896000.0,474000.0,99000.0,6887000.0,13895000.0,,,,,,,,,,,,,,,,,,,,,,,,,,,,,,,,,,,,,,,
ASM,American Samoa,,,,,,,,,,,,,,,,,,,,,,,,,,,,,,,,,,,,,,,,,,,,,,,,,,,,,,,,,,,,,
ATG,Antigua and Barbuda,,,,,,,,,,,,,,,,,,,,,,,,,,,,,,,,,,,,,,,,,,,,,,,,,,,,,,,,,,,,,
AUS,Australia,,,,,,,,,,,,,,,,,,,,,,,,,,,,,,,,,,,,,,,,,,,,,,,,,,,,,,,,,,,,,
AUT,Austria,,,,,,,,,,,,,,,,,,,,,,,,,,,,,,,,,,,,,,,,,,,,,,,,,,,,,,,,,,,,,
AZE,Azerbaijan,,,-2030000.0,-10189000.0,-15867000.0,-16270000.0,-16267000.0,-15540000.0,-15543000.0,-15391000.0,-12442000.0,-8795000.0,31069000.0,62171000.0,35094000.0,,-2775000.0,-7972000.0,-8432000.0,-5400000.0,1122000.0,18818000.0,-2686000.0,8057000.0,,,,,,,,,,,,,,,,,,,,,,,,,,,,,,,,,,,,,
BDI,Burundi,,,,,,,,,,,,,,,-1547000.0,-4590000.0,-4502000.0,7591000.0,-1974000.0,1795000.0,3048000.0,-69000.0,491000.0,-36000.0,-676000.0,-876000.0,-697000.0,-1194000.0,-1992000.0,-1378000.0,-735000.0,-951000.0,4437000.0,-1712000.0,-349000.0,-270000.0,-535000.0,3595000.0,531000.0,-1352000.0,-1399000.0,274000.0,669000.0,319000.0,622000.0,1415000.0,77000.0,-250000.0,-344000.0,-43000.0,27000.0,,,,,,,,,,
BEL,Belgium,,,,,,,,,,,,,,,,,,,,,,,,,,,,,,,,,,,,,,,,,,,,,,,,,,,,,,,,,,,,,
BEN,Benin,,,,,,,,,,,,,,,,-3813000.0,0.0,,,,,0.0,,,-29000.0,-59000.0,-88000.0,-29000.0,-118000.0,,-117000.0,-100000.0,265000.0,-1018000.0,-16984000.0,-17010000.0,-6855000.0,43661000.0,173121000.0,76036000.0,76000.0,106440000.0,3957000.0,-1039000.0,554000.0,-149000.0,3646000.0,584000.0,448000.0,-1304000.0,877000.0,,,,,,,,,,
BFA,Burkina Faso,,,,-923000.0,-2024000.0,-3676000.0,-2431000.0,-2457000.0,-2331000.0,-2524000.0,-2427000.0,-482000.0,-2762000.0,11068000.0,11615000.0,-4000.0,-4000.0,-4000.0,-3000.0,-3000.0,-3000.0,-4000.0,-4000.0,-4000.0,-4000.0,-4000.0,-4000.0,,,,-450000.0,2807000.0,-1445000.0,-1788000.0,-3094000.0,-5815000.0,-103000.0,14637000.0,10750000.0,908000.0,4020000.0,13124000.0,-1180000.0,680000.0,1596000.0,1159000.0,-329000.0,-238000.0,-108000.0,1051000.0,-236000.0,,,,,,,,,,
BGD,Bangladesh,,,,,,,,,-1963000.0,-4625000.0,-4417000.0,-9512000.0,-14798000.0,-11734000.0,-18372000.0,-11139000.0,-24043000.0,-14162000.0,-6138000.0,37150000.0,30689000.0,-19035000.0,-19818000.0,-16819000.0,-24182000.0,-17467000.0,-27803000.0,-7185000.0,-15843000.0,37072000.0,35307000.0,-29266000.0,-21145000.0,2685000.0,54356000.0,-4738000.0,28045000.0,46288000.0,17282000.0,15770000.0,10702000.0,9838000.0,15178000.0,2274000.0,1684000.0,77000.0,1279000.0,175000.0,605000.0,,,,,,,,,,,,
BGR,Bulgaria,,,,-60000.0,-118000.0,-119000.0,-142000.0,-143000.0,-136000.0,-148000.0,-142000.0,-148000.0,-157000.0,-73000.0,1337000.0,,0.0,-562000.0,-1039000.0,-1071000.0,-1207000.0,66495000.0,-2169000.0,1465000.0,-11651000.0,-6516000.0,,-13161000.0,-7315000.0,-56743000.0,-522320000.0,-434192000.0,-5366000.0,260778000.0,319875000.0,175007000.0,284383000.0,174522000.0,105789000.0,142508000.0,,,,,,,,,,,,,,,,,,,,,
BHR,Bahrain,,,,,,,,,,,,,,,,,,,,,,,,,,,,,,,,,,,,,,,,,,,,,,,,,,,,,,,,,,,,,
BHS,Bahamas,,,,,,,,,,,,,,,,,,,,,,,,,,,,,,,,,,,,,,,,,,,,,,,,,,,,,,,,,,,,,
BIH,Bosnia and Herzegovina,,,,,,,,,,,,,,,,,,,,,,,,,,,,,,,,,,,,,,,,,,,,,,,,,,,,,,,,,,,,,
BLR,Belarus,,,,,,-3370000.0,-6825000.0,-7519000.0,-12925000.0,-13996000.0,-18903000.0,-21866000.0,-44399000.0,-26388000.0,4748000.0,-28609000.0,-53135000.0,-31693000.0,-10893000.0,17470000.0,-1648000.0,-15935000.0,-15737000.0,-37547000.0,-31633000.0,83411000.0,89883000.0,114880000.0,,,,,,,,,,,,,,,,,,,,,,,,,,,,,,,,,
BLZ,Belize,,,,,,,,,,,,-2480000.0,-2480000.0,-2857000.0,-3377000.0,9130000.0,-565000.0,-11678000.0,-2359000.0,4959000.0,8431000.0,-104000.0,-1356000.0,-1432000.0,-2861000.0,-2393000.0,-2662000.0,5993000.0,-153000.0,2452000.0,-126000.0,-334000.0,-1470000.0,-2178000.0,-3824000.0,-3700000.0,452000.0,2863000.0,3522000.0,2015000.0,5764000.0,1131000.0,,,,,,,,,,,,,,,,,,,
BMU,Bermuda,,,,,,,,,,,,,,,,,,,,,,,,,,,,,,,,,,,,,,,,,,,,,,,,,,,,,,,,,,,,,
BOL,Bolivia,,-481000.0,-497000.0,-456000.0,-466000.0,-343000.0,-412000.0,-360000.0,-340000.0,-206000.0,-22000.0,-2038000.0,-3284000.0,-2605000.0,-2271000.0,-193000.0,1265000.0,-554000.0,-188000.0,1095000.0,9961000.0,-1224000.0,-633000.0,4408000.0,3425000.0,-3942000.0,-3633000.0,-32178000.0,-6542000.0,355000.0,1252000.0,-17537000.0,-38811000.0,-4743000.0,-3143000.0,-6536000.0,-528000.0,-31756000.0,22559000.0,124252000.0,153864000.0,44661000.0,35473000.0,21192000.0,1744000.0,12441000.0,-14546000.0,-8435000.0,2329000.0,1085000.0,2976000.0,,,,,,,,,,
BRA,Brazil,,1337156000.0,3261882000.0,2784577000.0,5347990000.0,938379000.0,17321056000.0,13670653000.0,10187448000.0,-15214000.0,28849000.0,-35142000.0,-84556000.0,-53300000.0,-27809000.0,-23016000.0,-9216000.0,-476069000.0,-689789000.0,-187950000.0,-214154000.0,-265563000.0,-733684000.0,-151682000.0,-537988000.0,-730301000.0,-420401000.0,-470019000.0,-425999000.0,-236820000.0,347624000.0,539205000.0,364378000.0,705413000.0,454993000.0,694947000.0,345860000.0,391957000.0,1116433000.0,-43314000.0,733009000.0,590218000.0,616003000.0,786112000.0,747531000.0,150277000.0,430679000.0,320560000.0,619416000.0,177623000.0,247314000.0,,,,,,,,,,
BRB,Barbados,,,,,,,,,,,,,,,,,,,,,,,,,,,,,,,,,,,,,,,,,,,,,,,,,,,,,,,,,,,,,
BRN,Brunei Darussalam,,,,,,,,,,,,,,,,,,,,,,,,,,,,,,,,,,,,,,,,,,,,,,,,,,,,,,,,,,,,,
BTN,Bhutan,,,,,,,,,,,,,,,,,,,,,,,-2260000.0,-2261000.0,-2261000.0,-2261000.0,-2261000.0,-2261000.0,-2385000.0,-2511000.0,-2634000.0,-1816000.0,22911000.0,,,,,,,,,,,,,,,,,,,,,,,,,,,,
BWA,Botswana,,-4440000.0,-8880000.0,-8880000.0,-8880000.0,-8880000.0,39960000.0,,-750000.0,-250000.0,-500000.0,-500000.0,-1251000.0,-693000.0,-709000.0,-690000.0,-673000.0,-658000.0,-644000.0,-632000.0,-620000.0,-696000.0,-48000.0,-484000.0,-4265000.0,-1707000.0,-1798000.0,-912000.0,-2513000.0,-2459000.0,-18290000.0,-3482000.0,-1163000.0,3086000.0,5874000.0,2705000.0,16374000.0,2762000.0,2234000.0,3196000.0,2819000.0,1700000.0,700000.0,-17000.0,-47000.0,-135000.0,-107000.0,-113000.0,-65000.0,-69000.0,256000.0,,,,,,,,,,
CAF,Central African Republic,,0.0,0.0,0.0,0.0,20000000.0,-2180000.0,-1291000.0,-140000.0,-152000.0,504000.0,1847000.0,0.0,0.0,0.0,0.0,0.0,0.0,0.0,0.0,-21000.0,-445000.0,,,,,-228000.0,,-596000.0,-266000.0,-560000.0,-1673000.0,467000.0,-458000.0,285000.0,-836000.0,-916000.0,1835000.0,-161000.0,-1453000.0,-872000.0,-165000.0,4000.0,9496000.0,24000.0,-530000.0,4294000.0,14245000.0,7493000.0,-135000.0,-1163000.0,,,,,,,,,,
CAN,Canada,,,,,,,,,,,,,,,,,,,,,,,,,,,,,,,,,,,,,,,,,,,,,,,,,,,,,,,,,,,,,
CEB,Central Europe and the Baltics,,,,,,,,,,,,,,,,,,,,,,,,,,,,,,,,,,,,,,,,,,,,,,,,,,,,,,,,,,,,,
CHE,Switzerland,,,,,,,,,,,,,,,,,,,,,,,,,,,,,,,,,,,,,,,,,,,,,,,,,,,,,,,,,,,,,
CHI,Channel Islands,,,,,,,,,,,,,,,,,,,,,,,,,,,,,,,,,,,,,,,,,,,,,,,,,,,,,,,,,,,,,
CHL,Chile,,,,,,,,,,,,,,,,,,,,,,,,,,,,,,,,,,,,,,,,,,,,,,,,,,,,,,,,,,,,,
CHN,China,,380151000.0,-974484000.0,-197407000.0,-773830000.0,-1762500000.0,-408368000.0,3817139000.0,-724639000.0,-3987490000.0,719001000.0,-52985000.0,-1404675000.0,338416000.0,-1013449000.0,-1523367000.0,-1136315000.0,-2996424000.0,-2372110000.0,-2073213000.0,1647635000.0,87305000.0,365827000.0,4074608000.0,4480754000.0,2363809000.0,3237424000.0,3250125000.0,5936404000.0,1855746000.0,2228641000.0,2234934000.0,938965000.0,259295000.0,905029000.0,1269076000.0,-13892000.0,259096000.0,79744000.0,342298000.0,,,,,,,,,,,,,,,,,,,,,
CIV,Cote d'Ivoire,,-8500000.0,-8500000.0,-8500000.0,-8500000.0,-7500000.0,,4894000.0,2418000.0,25178000.0,25979000.0,,,,,,,0.0,-828000.0,0.0,0.0,-603000.0,782000.0,-2596000.0,2489000.0,-30148000.0,-28705000.0,-8231000.0,-12246000.0,-38886000.0,-37492000.0,-11250000.0,-1419000.0,-47527000.0,-71783000.0,-20794000.0,33973000.0,7352000.0,33139000.0,97128000.0,388848000.0,271626000.0,211949000.0,152643000.0,111484000.0,100657000.0,37327000.0,33662000.0,10120000.0,18091000.0,6700000.0,,,,,,,,,,
CMR,Cameroon,,69529000.0,28713000.0,30087000.0,49750000.0,,,,,,,,,-2824000.0,,,,-2149000.0,,0.0,,-1771000.0,-27316000.0,-5789000.0,-6540000.0,-10893000.0,-1241000.0,6470000.0,2056000.0,59921000.0,80327000.0,184259000.0,223427000.0,-35102000.0,142057000.0,-16941000.0,6825000.0,27890000.0,-25193000.0,35039000.0,164079000.0,141832000.0,45731000.0,133205000.0,67327000.0,61998000.0,-4751000.0,-5363000.0,17463000.0,1167000.0,918000.0,,,,,,,,,,
COD,"Congo, Dem. Rep.",,76521000.0,17481000.0,-1624000.0,-6607000.0,-707000.0,-7639000.0,-9806000.0,12671000.0,-4999000.0,15857000.0,-20581000.0,-6591000.0,-4133000.0,-6260000.0,-1674000.0,-4123000.0,27969000.0,0.0,0.0,0.0,0.0,,,,,,,-4724000.0,-9498000.0,-7143000.0,33391000.0,5322000.0,-4219000.0,-14721000.0,-12864000.0,-21324000.0,-14324000.0,19165000.0,54388000.0,89084000.0,30813000.0,239330000.0,244125000.0,275611000.0,219490000.0,180391000.0,108327000.0,84469000.0,78229000.0,-491000.0,,,,,,,,,,
COG,"Congo, Rep.",,-833000.0,-216000.0,-1555000.0,-230000.0,-8814000.0,-2461000.0,-2572000.0,-2394000.0,-2555000.0,-383000.0,-2819000.0,-2998000.0,-1773000.0,0.0,0.0,-250000.0,1322000.0,0.0,0.0,0.0,0.0,-1979000.0,-13309000.0,-29742000.0,-7078000.0,-39251000.0,81599000.0,-9390000.0,-5464000.0,-9370000.0,-12341000.0,90078000.0,33483000.0,29282000.0,69220000.0,90156000.0,112922000.0,147286000.0,3385000.0,122941000.0,21729000.0,79909000.0,491000.0,9180000.0,33469000.0,38210000.0,16452000.0,6073000.0,3246000.0,-1383000.0,,,,,,,,,,
COL,Colombia,,,,-3188000.0,-483320000.0,,,,-14394000.0,-16012000.0,-16317000.0,-18108000.0,-21892000.0,-48622000.0,-116409000.0,-75266000.0,-40586000.0,-64176000.0,-75826000.0,-149575000.0,-201968000.0,947019000.0,-170864000.0,-127007000.0,-90264000.0,-219974000.0,-61631000.0,-174277000.0,-125297000.0,-174430000.0,-40671000.0,204030000.0,-15319000.0,119533000.0,132438000.0,183456000.0,225265000.0,116010000.0,64308000.0,37735000.0,43413000.0,769000.0,-8416000.0,3155000.0,45447000.0,37047000.0,23416000.0,9066000.0,10509000.0,12699000.0,21959000.0,,,,,,,,,,
COM,Comoros,,,,,,,,,,,,,,,,,,,,,,,,,,,,,,,,,,,,,,,,-74000.0,381000.0,,,,,,,,,,,,,,,,,,,,
CPV,Cabo Verde,,,,,,,,,-433000.0,-2092000.0,-3353000.0,-3522000.0,-3623000.0,-3557000.0,-5903000.0,4442000.0,-1445000.0,-2640000.0,-210000.0,8436000.0,-1800000.0,-600000.0,-2160000.0,260000.0,5347000.0,4245000.0,,,-120000.0,-240000.0,-120000.0,-120000.0,-120000.0,-120000.0,591000.0,972000.0,1437000.0,,,,,,,,,,,,,,,,,,,,,,,,
CRI,Costa Rica,,-2489000.0,77946000.0,-10267000.0,-20026000.0,-30147000.0,-7273000.0,-3812000.0,-443000.0,35561000.0,2000.0,-1872000.0,-2486000.0,-781000.0,-64000.0,-835000.0,-1500000.0,-1682000.0,-1550000.0,-2076000.0,-2867000.0,-1249000.0,-1683000.0,-2008000.0,-2207000.0,-4374000.0,-5212000.0,-1824000.0,-5190000.0,1728000.0,-3730000.0,975000.0,-3078000.0,14834000.0,185000.0,-3676000.0,43574000.0,157514000.0,3847000.0,9340000.0,5279000.0,-13017000.0,11630000.0,2878000.0,14953000.0,3199000.0,214000.0,709000.0,6760000.0,4753000.0,3040000.0,,,,,,,,,,
CSS,Caribbean small states,,,,,,,,,,,,,,,,,,,,,,,,,,,,,,,,,,,,,,,,,,,,,,,,,,,,,,,,,,,,,
CUB,Cuba,,,,,,,,,,,,,,,,,,,,,,,,,,,,,,,,,,,,,,,,,,,,,,,,,,,,,,,,,,,,,
CUW,Curacao,,,,,,,,,,,,,,,,,,,,,,,,,,,,,,,,,,,,,,,,,,,,,,,,,,,,,,,,,,,,,
CYM,Cayman Islands,,,,,,,,,,,,,,,,,,,,,,,,,,,,,,,,,,,,,,,,,,,,,,,,,,,,,,,,,,,,,
CYP,Cyprus,,,,,,,,,,,,,,,,,,,,,,,,,,,,,,,,,,,,,,,,,,,,,,,,,,,,,,,,,,,,,
CZE,Czech Republic,,,,,,,,,,,,,,,,,,,,,,,,,,,,,,,,,,,,,,,,,,,,,,,,,,,,,,,,,,,,,
DEU,Germany,,,,,,,,,,,,,,,,,,,,,,,,,,,,,,,,,,,,,,,,,,,,,,,,,,,,,,,,,,,,,
DJI,Djibouti,,,,-198000.0,-651000.0,-855000.0,-1025000.0,-1036000.0,-983000.0,-1064000.0,-2198000.0,-2469000.0,-3902000.0,-3647000.0,16777000.0,,,,,,,0.0,,,,,,,,,-210000.0,-359000.0,-627000.0,-629000.0,-573000.0,1112000.0,-442000.0,1213000.0,,,,,,,,,,,,,,,,,,,,,,,
DMA,Dominica,,-536000.0,-536000.0,-683000.0,-683000.0,-683000.0,-744000.0,-744000.0,-61000.0,944000.0,-61000.0,,,,,,,,1763000.0,11752000.0,,,,,,,,,,,,,,,,,,,,,,,,,,,,,,,,,,,,,,,,,
DNK,Denmark,,,,,,,,,,,,,,,,,,,,,,,,,,,,,,,,,,,,,,,,,,,,,,,,,,,,,,,,,,,,,
DOM,Dominican Republic,,604000.0,-3238000.0,-5151000.0,-6104000.0,3232000.0,-9081000.0,-15862000.0,-17954000.0,-11722000.0,-2289000.0,-14142000.0,-32908000.0,-35709000.0,-335897000.0,-49412000.0,-21785000.0,371911000.0,83864000.0,9031000.0,47982000.0,21909000.0,9024000.0,2269000.0,-11252000.0,-19809000.0,-28037000.0,-17106000.0,-17672000.0,-211000.0,1864000.0,14501000.0,54505000.0,19675000.0,7315000.0,29303000.0,7909000.0,22266000.0,44356000.0,21242000.0,22329000.0,-3963000.0,-2777000.0,-2744000.0,-1364000.0,8522000.0,5342000.0,-891000.0,16666000.0,-892000.0,1187000.0,,,,,,,,,,
DZA,Algeria,,-283000.0,-16223000.0,-32138000.0,-32142000.0,-33040000.0,-43626000.0,-65134000.0,-67470000.0,-125328000.0,-130548000.0,-210441000.0,-494799000.0,-256171000.0,-523629000.0,-548018000.0,-169193000.0,-172691000.0,-292302000.0,-687309000.0,-808503000.0,-1054904000.0,-856994000.0,-458908000.0,65982000.0,785911000.0,1293473000.0,861812000.0,46078000.0,9201000.0,712011000.0,692240000.0,757036000.0,484848000.0,-333213000.0,-57502000.0,964208000.0,87564000.0,-306781000.0,677531000.0,559270000.0,1250410000.0,1598423000.0,1335054000.0,970321000.0,581661000.0,207444000.0,238985000.0,70144000.0,105760000.0,227051000.0,,,,,,,,,,
EAP,East Asia & Pacific (excluding high income),,-1378483000.0,-1939382000.0,-3379137000.0,-1287158000.0,1597212000.0,2335845000.0,3421331000.0,-1089498000.0,-4399265000.0,1320428000.0,307074000.0,-2005943000.0,-13226000.0,-1037456000.0,-2254048000.0,-1683136000.0,-3124966000.0,-2576187000.0,-2158715000.0,1667894000.0,128090000.0,-188572000.0,4379801000.0,4496472000.0,1651285000.0,3422645000.0,3235719000.0,5933809000.0,1783107000.0,1749626000.0,1455011000.0,410369000.0,-221258000.0,614832000.0,2188620000.0,1132367000.0,1476171000.0,1154377000.0,886612000.0,1761273000.0,620297000.0,560435000.0,760109000.0,794301000.0,258570000.0,330182000.0,233133000.0,228903000.0,97407000.0,46111000.0,,,,,,,,,,
EAR,Early-demographic dividend,,,,,,,,,,,,,,,,,,,,,,,,,,,,,,,,,,,,,,,,,,,,,,,,,,,,,,,,,,,,,
EAS,East Asia & Pacific,,,,,,,,,,,,,,,,,,,,,,,,,,,,,,,,,,,,,,,,,,,,,,,,,,,,,,,,,,,,,
ECA,Europe & Central Asia (excluding high income),,-214062000.0,-155349000.0,-252050000.0,-377013000.0,-346907000.0,-290714000.0,-2613048000.0,-2590208000.0,-2530893000.0,-1225218000.0,220341000.0,-3393128000.0,8085328000.0,-789948000.0,-1370007000.0,-1237796000.0,-263165000.0,-1275493000.0,-1734874000.0,-786347000.0,-89079000.0,-778787000.0,101998000.0,527140000.0,649010000.0,534249000.0,4089145000.0,7374482000.0,4022202000.0,8307730000.0,2587864000.0,749544000.0,3208225000.0,948732000.0,213690000.0,471534000.0,494026000.0,170484000.0,72092000.0,2830822000.0,46458000.0,74642000.0,396968000.0,17146000.0,456528000.0,-56049000.0,26206000.0,30969000.0,16395000.0,-51034000.0,,,,,,,,,,
ECS,Europe & Central Asia,,,,,,,,,,,,,,,,,,,,,,,,,,,,,,,,,,,,,,,,,,,,,,,,,,,,,,,,,,,,,
ECU,Ecuador,,-239849000.0,154642000.0,-217446000.0,-217012000.0,-216606000.0,993968000.0,-6008000.0,-6998000.0,-8009000.0,-7715000.0,-7439000.0,-7786000.0,-22367000.0,41371000.0,-18519000.0,-5781000.0,-5614000.0,-11080000.0,-25200000.0,-31928000.0,-33680000.0,-56967000.0,-25293000.0,3828000.0,-127826000.0,-79927000.0,-113573000.0,-113889000.0,-22241000.0,39696000.0,139389000.0,30632000.0,-19716000.0,12879000.0,78435000.0,67620000.0,71676000.0,17341000.0,88681000.0,99361000.0,44470000.0,30033000.0,7990000.0,-7669000.0,-365000.0,-14800000.0,359000.0,10775000.0,7741000.0,16592000.0,,,,,,,,,,
EGY,"Egypt, Arab Rep.",,112168000.0,5010000.0,-5334000.0,-7751000.0,-9946000.0,-21418000.0,-20626000.0,-21999000.0,-21802000.0,-24531000.0,-31277000.0,-33383000.0,-40491000.0,-18521000.0,-27645000.0,55446000.0,-19817000.0,-40652000.0,-47892000.0,-51510000.0,-81384000.0,-88086000.0,-124797000.0,-147906000.0,-187864000.0,-99455000.0,-152983000.0,-151713000.0,-226311000.0,-126536000.0,283020000.0,507380000.0,488972000.0,611753000.0,383040000.0,667977000.0,1003526000.0,1063451000.0,623149000.0,532924000.0,335218000.0,183582000.0,60662000.0,123664000.0,56100000.0,3649000.0,-59781000.0,-11681000.0,-5072000.0,-30040000.0,,,,,,,,,,
EMU,Euro area,,,,,,,,,,,,,,,,,,,,,,,,,,,,,,,,,,,,,,,,,,,,,,,,,,,,,,,,,,,,,
ERI,Eritrea,,,,,0.0,,0.0,0.0,0.0,0.0,,,808000.0,,477000.0,,34633000.0,,,,,,,,,,,,,,,,,,,,,,,,,,,,,,,,,,,,,,,,,,,,
ESP,Spain,,,,,,,,,,,,,,,,,,,,,,,,,,,,,,,,,,,,,,,,,,,,,,,,,,,,,,,,,,,,,
EST,Estonia,,,,,,,,,,,,,,,,,,,,,,,,,,,,,,,,,,,,,,,,,,,,,,,,,,,,,,,,,,,,,
ETH,Ethiopia,,-292015000.0,-281782000.0,-278390000.0,63001000.0,765470000.0,430162000.0,-54225000.0,-48915000.0,-41328000.0,377847000.0,1049761000.0,-1070000.0,-7066000.0,-8182000.0,-10829000.0,-4234000.0,-3499000.0,-33000.0,-5351000.0,-4014000.0,-8029000.0,7152000.0,24666000.0,16176000.0,-8554000.0,2230000.0,9157000.0,3421000.0,34700000.0,-10289000.0,-31747000.0,14472000.0,14368000.0,40417000.0,65758000.0,29020000.0,42339000.0,100399000.0,48559000.0,26890000.0,-3322000.0,6169000.0,-1075000.0,-1824000.0,-1547000.0,-2140000.0,-4596000.0,-6182000.0,-4743000.0,-6867000.0,,,,,,,,,,
EUU,European Union,,,,,,,,,,,,,,,,,,,,,,,,,,,,,,,,,,,,,,,,,,,,,,,,,,,,,,,,,,,,,
FCS,Fragile and conflict affected situations,,,,,,,,,,,,,,,,,,,,,,,,,,,,,,,,,,,,,,,,,,,,,,,,,,,,,,,,,,,,,
FIN,Finland,,,,,,,,,,,,,,,,,,,,,,,,,,,,,,,,,,,,,,,,,,,,,,,,,,,,,,,,,,,,,
FJI,Fiji,,,,,,,,,,,,,,,,,,,-2000.0,-14000.0,-21000.0,-25000.0,-17000.0,-8000.0,-18000.0,-750000.0,-1431000.0,-1870000.0,-6709000.0,-3534000.0,-7336000.0,-4718000.0,11629000.0,-4914000.0,-3195000.0,4780000.0,1921000.0,4800000.0,-1934000.0,4527000.0,-1475000.0,-1134000.0,-6063000.0,8503000.0,-1608000.0,-1822000.0,-2044000.0,14923000.0,5464000.0,1101000.0,,,,,,,,,,,
FRA,France,,,,,,,,,,,,,,,,,,,,,,,,,,,,,,,,,,,,,,,,,,,,,,,,,,,,,,,,,,,,,
FRO,Faroe Islands,,,,,,,,,,,,,,,,,,,,,,,,,,,,,,,,,,,,,,,,,,,,,,,,,,,,,,,,,,,,,
FSM,"Micronesia, Fed. Sts.",,,,,,,,,,,,,,,,,,,,,,,,,,,,,,,,,,,,,,,,,,,,,,,,,,,,,,,,,,,,,
GAB,Gabon,,-4580000.0,-17428000.0,-504000.0,-7615000.0,-20480000.0,-8990000.0,-25108000.0,-33648000.0,26326000.0,-16166000.0,-10024000.0,-34337000.0,-1979000.0,43326000.0,13192000.0,-20532000.0,-33821000.0,1264000.0,-5406000.0,0.0,-432000.0,-2043000.0,64000.0,-20209000.0,-48746000.0,-28304000.0,-1590000.0,-4777000.0,-26224000.0,31946000.0,29192000.0,69038000.0,83962000.0,250176000.0,151849000.0,127919000.0,28880000.0,30169000.0,-47520000.0,-33670000.0,-28588000.0,-14991000.0,-16870000.0,60436000.0,72719000.0,44679000.0,49927000.0,45933000.0,18776000.0,5774000.0,,,,,,,,,,
GBR,United Kingdom,,,,,,,,,,,,,,,,,,,,,,,,,,,,,,,,,,,,,,,,,,,,,,,,,,,,,,,,,,,,,
GEO,Georgia,,0.0,70875000.0,0.0,,,,,,-488000.0,-434000.0,-419000.0,-405000.0,-340000.0,-406000.0,-118000.0,-210000.0,-162000.0,-110000.0,-43000.0,,,,-84000.0,,,,-4729000.0,20524000.0,,,,,,,,,,,,,,,,,,,,,,,,,,,,,,,,
GHA,Ghana,,-110080000.0,-14953000.0,108615000.0,480846000.0,-4005000.0,100331000.0,349328000.0,173877000.0,-22955000.0,-29702000.0,-32537000.0,30577000.0,-28887000.0,-31430000.0,-34427000.0,-35877000.0,-45320000.0,-22894000.0,124599000.0,14507000.0,-24099000.0,42746000.0,91541000.0,-18104000.0,13420000.0,33869000.0,21855000.0,44456000.0,37292000.0,-12300000.0,-15205000.0,19033000.0,20338000.0,4859000.0,26079000.0,3272000.0,24519000.0,14180000.0,-2755000.0,-20247000.0,-5883000.0,-4556000.0,22873000.0,-7324000.0,-15799000.0,16848000.0,-546000.0,-1464000.0,-1869000.0,-1604000.0,,,,,,,,,,
GIB,Gibraltar,,,,,,,,,,,,,,,,,,,,,,,,,,,,,,,,,,,,,,,,,,,,,,,,,,,,,,,,,,,,,
GIN,Guinea,,,,,0.0,,0.0,0.0,0.0,,,,,0.0,0.0,0.0,0.0,0.0,-198000.0,-188000.0,-194000.0,-224000.0,6465000.0,-9547000.0,16602000.0,-14917000.0,-9312000.0,3110000.0,-8111000.0,-10355000.0,-11426000.0,-9916000.0,28627000.0,-3320000.0,1116000.0,17738000.0,3842000.0,17332000.0,27081000.0,16831000.0,42467000.0,30358000.0,26138000.0,13416000.0,11787000.0,3945000.0,1626000.0,22455000.0,325000.0,6054000.0,5714000.0,,,,,,,,,,
GMB,"Gambia, The",,,,,,,,,,,,,,,,,,,,,,,,,-228000.0,-366000.0,-317000.0,-294000.0,-463000.0,-545000.0,-4484000.0,-491000.0,-529000.0,-110000.0,,-12000.0,-115000.0,429000.0,5269000.0,7545000.0,14402000.0,1904000.0,-213000.0,-213000.0,1063000.0,,,,,,,,,,,,,,,,
GNB,Guinea-Bissau,,,,,,,,,,,,,,,,,,,,,-178000.0,-129000.0,-129000.0,-129000.0,-233000.0,-254000.0,-75000.0,,-29000.0,-78000.0,-78000.0,-78000.0,,5496000.0,-122000.0,19868000.0,3305000.0,-46000.0,1167000.0,-797000.0,18112000.0,8923000.0,1883000.0,4079000.0,2171000.0,,,,,,,,,,,,,,,,
GNQ,Equatorial Guinea,,,,,,,,,,,,,,,,,,,,,,,,,,,,,,,,,,,,,,,,,,,,,,,,,,,,,,,,,,,,,
GRC,Greece,,,,,,,,,,,,,,,,,,,,,,,,,,,,,,,,,,,,,,,,,,,,,,,,,,,,,,,,,,,,,
GRD,Grenada,,,,,,,,,,,,,,,0.0,,-1479000.0,-1412000.0,-2065000.0,-1090000.0,-156000.0,-1683000.0,382000.0,-511000.0,-684000.0,-1547000.0,-1446000.0,-1373000.0,-392000.0,11061000.0,-66000.0,-686000.0,-665000.0,-325000.0,830000.0,-515000.0,-487000.0,-336000.0,3126000.0,1269000.0,,500000.0,,,,,,,,,,,,,,,,,,,
GRL,Greenland,,,,,,,,,,,,,,,,,,,,,,,,,,,,,,,,,,,,,,,,,,,,,,,,,,,,,,,,,,,,,
GTM,Guatemala,,,,,,,,,,-9000.0,-8000.0,-29000.0,-186000.0,-213000.0,-10719000.0,-249000.0,-415000.0,-862000.0,-1911000.0,-1562000.0,-1598000.0,-941000.0,-3198000.0,-5261000.0,-8546000.0,756000.0,-3642000.0,-1976000.0,-123000.0,-2655000.0,9990000.0,14181000.0,10232000.0,-25209000.0,-27892000.0,10029000.0,59896000.0,51974000.0,119274000.0,35559000.0,-1535000.0,-1426000.0,-1385000.0,-1726000.0,-1663000.0,-1604000.0,-1663000.0,-1841000.0,-1682000.0,12860000.0,-936000.0,,,,,,,,,,
GUM,Guam,,,,,,,,,,,,,,,,,,,,,,,,,,,,,,,,,,,,,,,,,,,,,,,,,,,,,,,,,,,,,
GUY,Guyana,,0.0,,,-61000.0,,0.0,,,,,,,,,,,,-271000.0,-168000.0,-44000.0,-172000.0,-1345000.0,-1620000.0,-4613000.0,-7974000.0,-3732000.0,-5313000.0,-9356000.0,-12571000.0,-7999000.0,-1471000.0,9524000.0,10816000.0,19788000.0,-4922000.0,-4651000.0,-8944000.0,-6214000.0,-382000.0,-4833000.0,-4211000.0,-4822000.0,12700000.0,4898000.0,6853000.0,972000.0,-1141000.0,-900000.0,-15000.0,-200000.0,,,,,,,,,,
HIC,High income,,,,,,,,,,,,,,,,,,,,,,,,,,,,,,,,,,,,,,,,,,,,,,,,,,,,,,,,,,,,,
HKG,"Hong Kong SAR, China",,,,,,,,,,,,,,,,,,,,,,,,,,,,,,,,,,,,,,,,,,,,,,,,,,,,,,,,,,,,,
HND,Honduras,,,,,,,,,,,,,,-1131000.0,-2260000.0,,,,-115000.0,-76000.0,0.0,-5134000.0,-13109000.0,-13111000.0,-6822000.0,18738000.0,10534000.0,7207000.0,-6788000.0,2065000.0,31650000.0,30974000.0,152000.0,11860000.0,31720000.0,39581000.0,1069000.0,2253000.0,-4970000.0,12776000.0,52108000.0,-2965000.0,-1654000.0,6011000.0,7775000.0,4373000.0,6765000.0,556000.0,-669000.0,-1410000.0,-1133000.0,,,,,,,,,,
HPC,Heavily indebted poor countries (HIPC),,,,,,,,,,,,,,,,,,,,,,,,,,,,,,,,,,,,,,,,,,,,,,,,,,,,,,,,,,,,,
HRV,Croatia,,,,,,,,,,,,,,,,,,,,,,,,,,,,,,,,,,,,,,,,,,,,,,,,,,,,,,,,,,,,,
HTI,Haiti,,,,,,,,,,,,,,,,,,,,,,,,,,,,,,,,,-1151000.0,-1560000.0,-2400000.0,-2484000.0,-2568000.0,-2821000.0,7198000.0,20333000.0,2723000.0,2584000.0,-1754000.0,308000.0,7245000.0,-1601000.0,-255000.0,-1882000.0,-1037000.0,-447000.0,1677000.0,,,,,,,,,,
HUN,Hungary,,,,,,,,,,,,,,,,,,,,,,,,,,,,,,,,,,,,,,,,,,,,,,,,,,,,,,,,,,,,,
IBD,IBRD only,,,,,,,,,,,,,,,,,,,,,,,,,,,,,,,,,,,,,,,,,,,,,,,,,,,,,,,,,,,,,
IBT,IDA & IBRD total,,,,,,,,,,,,,,,,,,,,,,,,,,,,,,,,,,,,,,,,,,,,,,,,,,,,,,,,,,,,,
IDA,IDA total,,,,,,,,,,,,,,,,,,,,,,,,,,,,,,,,,,,,,,,,,,,,,,,,,,,,,,,,,,,,,
IDB,IDA blend,,,,,,,,,,,,,,,,,,,,,,,,,,,,,,,,,,,,,,,,,,,,,,,,,,,,,,,,,,,,,
IDN,Indonesia,,-1719777000.0,-974016000.0,-3160885000.0,-508335000.0,3388231000.0,2666758000.0,-242388000.0,-251033000.0,-242979000.0,785559000.0,882061000.0,-150508000.0,-89989000.0,118958000.0,-630849000.0,-419654000.0,-83824000.0,-97107000.0,-22998000.0,-161556000.0,-263152000.0,-414722000.0,-166179000.0,226592000.0,-124873000.0,731802000.0,64975000.0,-305456000.0,-387178000.0,-664681000.0,-873767000.0,-630241000.0,-367179000.0,-207833000.0,517442000.0,808517000.0,964722000.0,686611000.0,117532000.0,-48215000.0,-230256000.0,172720000.0,625942000.0,753522000.0,176956000.0,300717000.0,252309000.0,223718000.0,92189000.0,28666000.0,,,,,,,,,,
IDX,IDA only,,,,,,,,,,,,,,,,,,,,,,,,,,,,,,,,,,,,,,,,,,,,,,,,,,,,,,,,,,,,,
IMN,Isle of Man,,,,,,,,,,,,,,,,,,,,,,,,,,,,,,,,,,,,,,,,,,,,,,,,,,,,,,,,,,,,,
IND,India,,-7952000.0,-8304000.0,-8010000.0,-7878000.0,-7894000.0,-10038000.0,50406000.0,-210930000.0,-26358000.0,-19386000.0,-23999000.0,-20213000.0,108687000.0,-21915000.0,-130907000.0,-264400000.0,-60035000.0,-142467000.0,-430451000.0,376127000.0,-407574000.0,-1088061000.0,-902834000.0,59600000.0,540041000.0,1257174000.0,1525152000.0,111286000.0,-158297000.0,-172153000.0,-135595000.0,2179904000.0,18346000.0,541321000.0,275161000.0,458135000.0,64352000.0,327588000.0,20896000.0,-10639000.0,-28285000.0,-20596000.0,-31042000.0,-10805000.0,29975000.0,13387000.0,-37771000.0,-22916000.0,-22484000.0,-41662000.0,,,,,,,,,,
INX,Not classified,,,,,,,,,,,,,,,,,,,,,,,,,,,,,,,,,,,,,,,,,,,,,,,,,,,,,,,,,,,,,
IRL,Ireland,,,,,,,,,,,,,,,,,,,,,,,,,,,,,,,,,,,,,,,,,,,,,,,,,,,,,,,,,,,,,
IRN,"Iran, Islamic Rep.",,,,-18308000.0,-562813000.0,-121032000.0,-119945000.0,-14400000.0,-124493000.0,-396301000.0,-487700000.0,-625508000.0,-664998000.0,-590399000.0,-523000000.0,-194684000.0,256797000.0,659875000.0,70916000.0,411724000.0,234575000.0,-175588000.0,-318076000.0,-258348000.0,-633349000.0,-32019000.0,637989000.0,1252582000.0,1171453000.0,349563000.0,-29648000.0,-18531000.0,-89449000.0,-114379000.0,-129519000.0,-186117000.0,-303561000.0,-386560000.0,-202760000.0,-357181000.0,-140641000.0,,,,,,,,,,,,,,,,,,,,
IRQ,Iraq,,,,,,,,,,,,,,,,,,,,,,,,,,,,,,,,,,,,,,,,,,,,,,,,,,,,,,,,,,,,,
ISL,Iceland,,,,,,,,,,,,,,,,,,,,,,,,,,,,,,,,,,,,,,,,,,,,,,,,,,,,,,,,,,,,,
ISR,Israel,,,,,,,,,,,,,,,,,,,,,,,,,,,,,,,,,,,,,,,,,,,,,,,,,,,,,,,,,,,,,
ITA,Italy,,,,,,,,,,,,,,,,,,,,,,,,,,,,,,,,,,,,,,,,,,,,,,,,,,,,,,,,,,,,,
JAM,Jamaica,,,-8881000.0,-1045000.0,-1045000.0,-2706000.0,-6005000.0,-6581000.0,-7632000.0,-6025000.0,4440000.0,3100000.0,-7806000.0,6605000.0,-8967000.0,-7999000.0,-14051000.0,-3825000.0,5154000.0,3625000.0,-10948000.0,7833000.0,4789000.0,-14645000.0,4835000.0,-3556000.0,-55735000.0,-30940000.0,-1696000.0,-62243000.0,-36538000.0,7707000.0,-10638000.0,14598000.0,-1969000.0,38248000.0,25298000.0,98964000.0,-341000.0,-6449000.0,-13379000.0,22250000.0,-2239000.0,-4016000.0,60214000.0,3406000.0,2374000.0,16254000.0,2177000.0,223000.0,,,,,,,,,,,
JOR,Jordan,,-11672000.0,-10436000.0,-9302000.0,-8369000.0,-7257000.0,-6657000.0,-12980000.0,-13037000.0,-11674000.0,-9979000.0,-8763000.0,-70786000.0,-15300000.0,-10463000.0,11412000.0,-4935000.0,-11814000.0,-23781000.0,-24311000.0,-41297000.0,-21126000.0,-55115000.0,-24669000.0,-37652000.0,-66343000.0,-52216000.0,-40905000.0,-41828000.0,-12933000.0,209901000.0,338656000.0,343161000.0,106724000.0,226387000.0,55187000.0,101317000.0,58961000.0,144792000.0,79853000.0,24748000.0,31831000.0,-3560000.0,-2271000.0,-3823000.0,5181000.0,4135000.0,-2229000.0,-2026000.0,7803000.0,4057000.0,,,,,,,,,,
JPN,Japan,,,,,,,,,,,,,,,,,,,,,,,,,,,,,,,,,,,,,,,,,,,,,,,,,,,,,,,,,,,,,
KAZ,Kazakhstan,,,,,,,,,,,,,,,,,-10017000.0,-13777000.0,-26381000.0,-56125000.0,-53137000.0,-33975000.0,-75858000.0,-39892000.0,-45213000.0,164385000.0,131268000.0,170802000.0,16451000.0,,,,,,,,,,,,,,,,,,,,,,,,,,,,,,,,
KEN,Kenya,,,,,,-551000.0,-1100000.0,-1100000.0,-2226000.0,-3986000.0,-1739000.0,-1739000.0,-1739000.0,-2378000.0,-4078000.0,-1649000.0,-9119000.0,97660000.0,290000.0,-3023000.0,-4221000.0,-24066000.0,4882000.0,-17047000.0,-25252000.0,14003000.0,-48673000.0,-16998000.0,29945000.0,23083000.0,42360000.0,48866000.0,7777000.0,-7150000.0,-30217000.0,-31668000.0,-32861000.0,-47449000.0,-40394000.0,-22653000.0,33297000.0,32336000.0,142627000.0,106656000.0,50157000.0,-4546000.0,1983000.0,5667000.0,-2522000.0,9362000.0,-135000.0,,,,,,,,,,
KGZ,Kyrgyz Republic,,,,,,,,,,,,,,,,0.0,,0.0,-639000.0,-1702000.0,2407000.0,4233000.0,2702000.0,,,,,,,,,,,,,,,,,,,,,,,,,,,,,,,,,,,,,,
KHM,Cambodia,,,,,,,,,,,,,,,,,,,,,,-3198000.0,-3200000.0,-3198000.0,-3200000.0,12796000.0,,,,,,,,,,,,,,,,,,,,,,,,,,,,,,,,,,,
KIR,Kiribati,,,,,,,,,,,,,,,,,,,,,,,,,,,,,,,,,,,,,,,,,,,,,,,,,,,,,,,,,,,,,
KNA,St. Kitts and Nevis,,,,,,,,,,,0.0,0.0,0.0,0.0,-622000.0,-1293000.0,-1484000.0,-1840000.0,-1278000.0,-1276000.0,-3451000.0,-27000.0,6949000.0,-567000.0,-1225000.0,-922000.0,2264000.0,246000.0,362000.0,1301000.0,-433000.0,2976000.0,0.0,0.0,0.0,0.0,0.0,,,,,,,,,,,,,,,,,,,,,,,,
KOR,"Korea, Rep.",,,,,,,,,,,,,,,,,,,,,,,,,,,,,,,,,,,,,,,,,,,,,,,,,,,,,,,,,,,,,
KWT,Kuwait,,,,,,,,,,,,,,,,,,,,,,,,,,,,,,,,,,,,,,,,,,,,,,,,,,,,,,,,,,,,,
LAC,Latin America & Caribbean (excluding high income),,483787000.0,2858386000.0,2063550000.0,3995718000.0,191104000.0,17899593000.0,14143106000.0,9673347000.0,-435549000.0,700862000.0,-525934000.0,-518105000.0,-443691000.0,-551859000.0,-228520000.0,-142285000.0,-514627000.0,-1483525000.0,-1738236000.0,-846656000.0,837247000.0,-1685197000.0,-801503000.0,-1492462000.0,-1283442000.0,-1740251000.0,-1484009000.0,-1441510000.0,-1365453000.0,576730000.0,1246002000.0,1664262000.0,1284798000.0,1423774000.0,811343000.0,684019000.0,1913056000.0,2326843000.0,1030109000.0,1104419000.0,968393000.0,1348135000.0,816577000.0,958808000.0,426781000.0,399797000.0,556300000.0,735683000.0,237979000.0,377829000.0,,,,,,,,,,
LAO,Lao PDR,,-9670000.0,49696000.0,2482000.0,30769000.0,-1553000.0,-1797000.0,-1887000.0,-2355000.0,-1211000.0,,,,4250000.0,,,,34200000.0,,,,,,,,,,,,,,,,,,,,,,,,-238000.0,-78000.0,-635000.0,-538000.0,993000.0,822000.0,4917000.0,401000.0,-91000.0,-91000.0,,,,,,,,,,
LBN,Lebanon,,193000.0,7340000.0,549000.0,706000.0,1020000.0,3376000.0,-27474000.0,4985000.0,-4504000.0,-11268000.0,-2733000.0,-1280000.0,-2990000.0,591000.0,-1318000.0,-428000.0,-1434000.0,-958000.0,-2206000.0,-1846000.0,-1979000.0,-1465000.0,-697000.0,-39341000.0,2161000.0,2287000.0,-5099000.0,-4745000.0,6242000.0,6321000.0,1569000.0,14883000.0,11274000.0,9927000.0,-3238000.0,-2565000.0,16500000.0,94535000.0,10185000.0,-186000.0,-185000.0,-174000.0,-213000.0,-218000.0,-53000.0,1255000.0,-53000.0,-53000.0,-53000.0,-53000.0,,,,,,,,,,
LBR,Liberia,,,,,,,,,,,,,,0.0,0.0,0.0,0.0,0.0,0.0,0.0,0.0,0.0,,,,,,,,,,,,,,-35000.0,-208000.0,6284000.0,-1408000.0,812000.0,-3333000.0,-5599000.0,8692000.0,4517000.0,6982000.0,-2908000.0,-96000.0,-4415000.0,-5038000.0,-3125000.0,-6551000.0,,,,,,,,,,
LBY,Libya,,,,,,,,,,,,,,,,,,,,,,,,,,,,,,,,,,,,,,,,,,,,,,,,,,,,,,,,,,,,,
LCA,St. Lucia,,,,,,,,,,,,,,,,,,,,,,,,,,,,,,,,,,,,,,,,,,,,,,,,,,,,,,,,,,,,,
LCN,Latin America & Caribbean,,,,,,,,,,,,,,,,,,,,,,,,,,,,,,,,,,,,,,,,,,,,,,,,,,,,,,,,,,,,,
LDC,Least developed countries: UN classification,,,,,,,,,,,,,,,,,,,,,,,,,,,,,,,,,,,,,,,,,,,,,,,,,,,,,,,,,,,,,
LIC,Low income,,-172384000.0,-264301000.0,-291105000.0,44412000.0,771101000.0,1337443000.0,578064000.0,-40590000.0,-54003000.0,389781000.0,1029545000.0,-9706000.0,-236000.0,-7994000.0,-28088000.0,10049000.0,26619000.0,-24346000.0,-25238000.0,439141000.0,-24714000.0,10923000.0,7785000.0,19329000.0,-61251000.0,-35332000.0,-11072000.0,-48183000.0,-14604000.0,116232000.0,219865000.0,377758000.0,443948000.0,126187000.0,193608000.0,188490000.0,190407000.0,375974000.0,499318000.0,564080000.0,489055000.0,657586000.0,651521000.0,531010000.0,491317000.0,393006000.0,224397000.0,150089000.0,117288000.0,29943000.0,,,,,,,,,,
LIE,Liechtenstein,,,,,,,,,,,,,,,,,,,,,,,,,,,,,,,,,,,,,,,,,,,,,,,,,,,,,,,,,,,,,
LKA,Sri Lanka,,-151313000.0,-291313000.0,-291313000.0,688863000.0,-3892000.0,-6562000.0,-4493000.0,14409000.0,24488000.0,5039000.0,-3639000.0,-10746000.0,-27713000.0,-56779000.0,-41882000.0,-39879000.0,-25926000.0,-35959000.0,-33580000.0,115310000.0,1893000.0,37978000.0,28431000.0,61851000.0,67145000.0,-26648000.0,-25635000.0,-27041000.0,-3790000.0,-17388000.0,492000.0,-27042000.0,13176000.0,25263000.0,3870000.0,25133000.0,-142000.0,107381000.0,87581000.0,26873000.0,9481000.0,-28887000.0,-52822000.0,11341000.0,-10839000.0,52204000.0,10938000.0,-385000.0,5248000.0,785000.0,,,,,,,,,,
LMC,Lower middle income,,-628651000.0,-1121836000.0,-870224000.0,769422000.0,54029000.0,1272408000.0,-861602000.0,671817000.0,-309484000.0,-286365000.0,-947563000.0,-1035336000.0,-1499354000.0,-1752839000.0,-1532744000.0,-1253457000.0,-122044000.0,-1172334000.0,-1472329000.0,-856625000.0,-992727000.0,-2133862000.0,-1675965000.0,-1172728000.0,254625000.0,1810398000.0,2983082000.0,978876000.0,-225428000.0,1512408000.0,1980007000.0,4933630000.0,2260388000.0,2236455000.0,2420293000.0,3482381000.0,3651915000.0,4334329000.0,3228776000.0,3562748000.0,2904572000.0,2793217000.0,2410358000.0,1422614000.0,1474694000.0,452809000.0,-63651000.0,62708000.0,211167000.0,555834000.0,,,,,,,,,,
LMY,Low & middle income,,-1730519000.0,-670397000.0,-2743680000.0,2569077000.0,2150321000.0,22224493000.0,15762608000.0,6363252000.0,-8012378000.0,468479000.0,-126664000.0,-7306082000.0,5813176000.0,-4408714000.0,-5396158000.0,-3986083000.0,-4644934000.0,-6864208000.0,-7034479000.0,-169459000.0,-940681000.0,-5441560000.0,1813466000.0,2067757000.0,2702870000.0,4856067000.0,9646894000.0,13272988000.0,4272869000.0,12323638000.0,7732031000.0,8500225000.0,7083121000.0,5709757000.0,5507299000.0,5610780000.0,7197292000.0,8199896000.0,5060735000.0,9323735000.0,4850355000.0,5158119000.0,4870629000.0,3698303000.0,3089217000.0,1555338000.0,1067249000.0,1250767000.0,706654000.0,956412000.0,,,,,,,,,,
LSO,Lesotho,,,,-1000.0,-1000.0,-27000.0,-96000.0,-97000.0,-92000.0,-101000.0,-96000.0,-100000.0,-106000.0,-99000.0,-90000.0,-126000.0,-53000.0,-81000.0,-68000.0,-64000.0,-21000.0,-76000.0,-103000.0,227000.0,-768000.0,-2112000.0,-2409000.0,-2374000.0,-4818000.0,-3715000.0,-2479000.0,-1571000.0,10549000.0,11829000.0,-793000.0,-4728000.0,-4395000.0,12215000.0,4959000.0,-1284000.0,324000.0,7591000.0,-31000.0,-56000.0,-74000.0,-41000.0,-67000.0,-68000.0,387000.0,161000.0,130000.0,,,,,,,,,,
LTE,Late-demographic dividend,,,,,,,,,,,,,,,,,,,,,,,,,,,,,,,,,,,,,,,,,,,,,,,,,,,,,,,,,,,,,
LTU,Lithuania,,,,,,,,,,,,,,,,,,,,,,,,,,,,,,,,,,,,,,,,,,,,,,,,,,,,,,,,,,,,,
LUX,Luxembourg,,,,,,,,,,,,,,,,,,,,,,,,,,,,,,,,,,,,,,,,,,,,,,,,,,,,,,,,,,,,,
LVA,Latvia,,,,,,,,,,,,,,,,,,,,,,,,,,,,,,,,,,,,,,,,,,,,,,,,,,,,,,,,,,,,,
MAC,"Macao SAR, China",,,,,,,,,,,,,,,,,,,,,,,,,,,,,,,,,,,,,,,,,,,,,,,,,,,,,,,,,,,,,
MAF,St. Martin (French part),,,,,,,,,,,,,,,,,,,,,,,,,,,,,,,,,,,,,,,,,,,,,,,,,,,,,,,,,,,,,
MAR,Morocco,,46136000.0,-9725000.0,-8814000.0,-8728000.0,-8934000.0,-23998000.0,-31277000.0,-31449000.0,-37477000.0,-40025000.0,-12058000.0,20614000.0,-98803000.0,-102948000.0,-143886000.0,-201374000.0,-115405000.0,-116950000.0,-135606000.0,-80201000.0,-46830000.0,-138711000.0,-87682000.0,-375637000.0,-27004000.0,-108530000.0,-98025000.0,103974000.0,-108354000.0,168694000.0,78167000.0,298398000.0,198473000.0,463849000.0,208098000.0,391770000.0,429266000.0,562197000.0,316621000.0,406445000.0,150340000.0,232664000.0,268707000.0,125989000.0,411531000.0,91992000.0,-2021000.0,2366000.0,38893000.0,23985000.0,,,,,,,,,,
MCO,Monaco,,,,,,,,,,,,,,,,,,,,,,,,,,,,,,,,,,,,,,,,,,,,,,,,,,,,,,,,,,,,,
MDA,Moldova,,429000.0,728000.0,-478000.0,-2434000.0,-4990000.0,-3651000.0,1697000.0,-5293000.0,2197000.0,-2178000.0,11193000.0,-1900000.0,-1900000.0,7008000.0,,-3617000.0,-2667000.0,-402000.0,-3429000.0,-537000.0,-8635000.0,,-5000000.0,,15000000.0,,,,,,,,,,,,,,,,,,,,,,,,,,,,,,,,,,,
MDG,Madagascar,,0.0,,,,,,,,,,,,,,,0.0,-53000.0,-44000.0,-42000.0,-43000.0,-311000.0,-298000.0,-893000.0,-2844000.0,-3355000.0,-3757000.0,-6676000.0,-6273000.0,-8150000.0,-4588000.0,-5477000.0,-1132000.0,2625000.0,-3504000.0,1919000.0,2390000.0,67980000.0,33276000.0,37342000.0,89437000.0,94500000.0,13227000.0,15313000.0,1356000.0,-460000.0,-460000.0,-460000.0,3674000.0,-646000.0,-682000.0,,,,,,,,,,
MDV,Maldives,,7437000.0,0.0,,,,,,,-219000.0,-219000.0,-219000.0,-219000.0,-219000.0,-219000.0,-1685000.0,-2387000.0,-1944000.0,-1901000.0,-2073000.0,1883000.0,-1733000.0,3957000.0,1457000.0,1026000.0,-251000.0,-1050000.0,2041000.0,1871000.0,-718000.0,2594000.0,-570000.0,-607000.0,-592000.0,1324000.0,-458000.0,190000.0,-399000.0,-446000.0,2807000.0,,,,,,,,,,,,,,,,,,,,,
MEA,Middle East & North Africa,,,,,,,,,,,,,,,,,,,,,,,,,,,,,,,,,,,,,,,,,,,,,,,,,,,,,,,,,,,,,
MEX,Mexico,,-64263000.0,-74158000.0,-155975000.0,-110729000.0,-492415000.0,-360123000.0,602253000.0,-324955000.0,-270340000.0,841514000.0,-237938000.0,-130787000.0,-78691000.0,-92769000.0,-99931000.0,-149856000.0,-127831000.0,-251231000.0,-815082000.0,-652850000.0,-52788000.0,-667892000.0,-588247000.0,-277337000.0,321679000.0,-1035528000.0,-433310000.0,-450954000.0,-378052000.0,295965000.0,62990000.0,546412000.0,480394000.0,407506000.0,-443778000.0,-337188000.0,420422000.0,36846000.0,314916000.0,33114000.0,-14048000.0,-47579000.0,31183000.0,16979000.0,119381000.0,-25403000.0,10694000.0,-38667000.0,-32503000.0,5519000.0,,,,,,,,,,
MHL,Marshall Islands,,,,,,,,,,,,,,,,,,,,,,,,,,,,,,,,,,,,,,,,,,,,,,,,,,,,,,,,,,,,,
MIC,Middle income,,-1558135000.0,-406096000.0,-2452575000.0,2524665000.0,1379220000.0,20887050000.0,15184544000.0,6403842000.0,-7958375000.0,78698000.0,-1156209000.0,-7296376000.0,5813412000.0,-4400720000.0,-5368070000.0,-3996132000.0,-4671553000.0,-6839862000.0,-7009241000.0,-608600000.0,-915967000.0,-5452483000.0,1805681000.0,2048428000.0,2764121000.0,4891399000.0,9657966000.0,13321171000.0,4287473000.0,12207406000.0,7512166000.0,8122467000.0,6639173000.0,5583570000.0,5313691000.0,5422290000.0,7006885000.0,7823922000.0,4561417000.0,8759655000.0,4361300000.0,4500533000.0,4219108000.0,3167293000.0,2597900000.0,1162332000.0,842852000.0,1100678000.0,589366000.0,926469000.0,,,,,,,,,,
MKD,North Macedonia,,-200000.0,-72000.0,-588000.0,-4000.0,-654000.0,-2509000.0,-471000.0,-3212000.0,3019000.0,-1677000.0,-2026000.0,6339000.0,-1990000.0,-1193000.0,-648000.0,-396000.0,-260000.0,-2515000.0,-686000.0,1238000.0,-330000.0,4732000.0,-659000.0,1099000.0,380000.0,,,,,,,,,,,,,,,,,,,,,,,,,,,,,,,,,,,
MLI,Mali,,,,,,,,,,,,,,,,,,,,,,,,,,,-834000.0,,-2578000.0,-652000.0,-985000.0,-850000.0,-1959000.0,-5082000.0,2003000.0,-1126000.0,-122000.0,22909000.0,439000.0,-683000.0,3973000.0,-151000.0,1223000.0,1475000.0,1062000.0,1999000.0,1634000.0,4956000.0,3067000.0,193000.0,-36000.0,,,,,,,,,,
MLT,Malta,,,,,,,,,,,,,,,,,,,,,,,,,,,,,,,,,,,,,,,,,,,,,,,,,,,,,,,,,,,,,
MMR,Myanmar,,-26939000.0,-38288000.0,-11404000.0,-13764000.0,5013000.0,129829000.0,-56715000.0,7157000.0,-4757000.0,-3217000.0,-1474000.0,2030000.0,5083000.0,2275000.0,-2002000.0,-1907000.0,-2406000.0,-2475000.0,-1454000.0,-2792000.0,-6510000.0,88643000.0,93457000.0,22092000.0,38595000.0,-4474000.0,33098000.0,-833000.0,-2394000.0,-8111000.0,-53065000.0,-25959000.0,5479000.0,-41192000.0,-45967000.0,-3189000.0,8078000.0,54850000.0,97746000.0,27105000.0,83036000.0,46604000.0,33328000.0,-9000000.0,-5433000.0,1823000.0,-13094000.0,12072000.0,13767000.0,13461000.0,,,,,,,,,,
MNA,Middle East & North Africa (excluding high income),,143892000.0,-26939000.0,-75876000.0,-622140000.0,-181699000.0,-215527000.0,-174736000.0,-270286000.0,-614263000.0,-748914000.0,-914203000.0,-1283135000.0,-1068226000.0,-1220070000.0,-973926000.0,-144744000.0,231534000.0,-505504000.0,-567684000.0,-816014000.0,-1307457000.0,-1461934000.0,-942366000.0,-1282979000.0,380877000.0,1625190000.0,1764346000.0,1086505000.0,-79522000.0,943823000.0,1562780000.0,2273576000.0,1482720000.0,926474000.0,444661000.0,1880660000.0,1345973000.0,1601823000.0,1571213000.0,1562341000.0,2160180000.0,2130836000.0,1972713000.0,1336743000.0,1129749000.0,394465000.0,234137000.0,77605000.0,175940000.0,259622000.0,,,,,,,,,,
MNE,Montenegro,,-33067000.0,-823000.0,-787000.0,-934000.0,-1069000.0,-926000.0,38342000.0,-889000.0,-1125000.0,-1010000.0,907000.0,3897000.0,,10924000.0,,,,,,,,,,,,,,,,,,,,,,,,,,,,,,,,,,,,,,,,,,,,,,
MNG,Mongolia,,,,,,-2700000.0,-2700000.0,-2700000.0,-3501000.0,4700000.0,-2050000.0,-2350000.0,-2650000.0,1150000.0,12800000.0,,,,,-1158000.0,-2396000.0,-2620000.0,-11350000.0,-12197000.0,-14989000.0,-8452000.0,-22043000.0,-10286000.0,747000.0,,,,,,,,,,,,,,,,,,,,,,,,,,,,,,,,
MNP,Northern Mariana Islands,,,,,,,,,,,,,,,,,,,,,,,,,,,,,,,,,,,,,,,,,,,,,,,,,,,,,,,,,,,,,
MOZ,Mozambique,,,,,,,,,,,,,,,,,,,,,,,,-941000.0,-1233000.0,-9123000.0,-1283000.0,-6011000.0,-1279000.0,1879000.0,20124000.0,19446000.0,-1009000.0,24177000.0,38963000.0,55506000.0,93298000.0,,,,,,,,,,,,,,,,,,,,,,,,
MRT,Mauritania,,,,,,,,,,,,,,,,,,,,-2860000.0,-2389000.0,-2125000.0,-1997000.0,-1524000.0,24492000.0,-76000.0,-57000.0,-83000.0,-2091000.0,-2406000.0,-1304000.0,517000.0,594000.0,-4531000.0,7491000.0,4073000.0,19708000.0,22056000.0,8692000.0,-12690000.0,4762000.0,-20050000.0,1618000.0,11482000.0,4612000.0,6351000.0,2945000.0,370000.0,-5158000.0,3082000.0,-1606000.0,,,,,,,,,,
MUS,Mauritius,,,,,,,,,,,,,,,,,,,,,,,,,,,,,,,,,,,,,,,,,,,,,,,,,,,,,,,,,,,,,
MWI,Malawi,,,,,,,,,,,,,-91000.0,-105000.0,-110000.0,-115000.0,-85000.0,0.0,0.0,0.0,0.0,387000.0,-847000.0,-1464000.0,-4002000.0,-12389000.0,4812000.0,-3816000.0,9173000.0,-9971000.0,2907000.0,6930000.0,2445000.0,-2188000.0,-2129000.0,793000.0,4997000.0,-1023000.0,-223000.0,-639000.0,3587000.0,8776000.0,10423000.0,6625000.0,-1308000.0,-1432000.0,2005000.0,-661000.0,4896000.0,-335000.0,2570000.0,,,,,,,,,,
MYS,Malaysia,,,,,,,,,,,,,,,,,,,,,,,,,,,,,,,,,,,,,,,,,,,,,,,,,,,,,,,,,,,,,
NAC,North America,,,,,,,,,,,,,,,,,,,,,,,,,,,,,,,,,,,,,,,,,,,,,,,,,,,,,,,,,,,,,
NAM,Namibia,,,,,,,,,,,,,,,,,,,,,,,,,,,,,,,,,,,,,,,,,,,,,,,,,,,,,,,,,,,,,
NCL,New Caledonia,,,,,,,,,,,,,,,,,,,,,,,,,,,,,,,,,,,,,,,,,,,,,,,,,,,,,,,,,,,,,
NER,Niger,,,,,,,,,,,,,,,,,,,,,,,,,,,,,,-153000.0,-1595000.0,-1363000.0,-1767000.0,-4620000.0,-5874000.0,-3746000.0,150000.0,5027000.0,9369000.0,69260000.0,15967000.0,27092000.0,14164000.0,-2248000.0,-2987000.0,-677000.0,7521000.0,-170000.0,3497000.0,-245000.0,-564000.0,,,,,,,,,,
NGA,Nigeria,,,,,,,,,,,-3770000.0,-7540000.0,-7540000.0,-595667000.0,-131528000.0,-168255000.0,-93088000.0,-244311000.0,-157903000.0,-149893000.0,-141722000.0,-111070000.0,-14800000.0,-247874000.0,-680222000.0,-438401000.0,-305773000.0,-78999000.0,-199091000.0,-18299000.0,282285000.0,564890000.0,293721000.0,599341000.0,-118846000.0,199644000.0,132982000.0,836294000.0,1504866000.0,743515000.0,571270000.0,85118000.0,-10177000.0,1457000.0,-277628000.0,-158345000.0,-93276000.0,-134813000.0,-1419000.0,-5478000.0,-14129000.0,,,,,,,,,,
NIC,Nicaragua,,-1970000.0,9846000.0,0.0,,,,,,,,,0.0,,,0.0,,0.0,-451000.0,-3316000.0,-1346000.0,4579000.0,-4563000.0,-12188000.0,-4330000.0,-4243000.0,-6606000.0,-5564000.0,-3631000.0,-3022000.0,20161000.0,12347000.0,-361000.0,2482000.0,5916000.0,9569000.0,9788000.0,26882000.0,7794000.0,-6534000.0,-5907000.0,-2448000.0,6935000.0,55374000.0,1332000.0,-1676000.0,953000.0,-92000.0,-1055000.0,-825000.0,-1870000.0,,,,,,,,,,
NLD,Netherlands,,,,,,,,,,,,,,,,,,,,,,,,,,,,,,,,,,,,,,,,,,,,,,,,,,,,,,,,,,,,,
NOR,Norway,,,,,,,,,,,,,,,,,,,,,,,,,,,,,,,,,,,,,,,,,,,,,,,,,,,,,,,,,,,,,
NPL,Nepal,,-11000.0,-12000.0,-143000.0,-193000.0,-393000.0,-497000.0,-503000.0,-497000.0,-516000.0,-490000.0,-507000.0,-536000.0,-308000.0,-457000.0,-680000.0,-296000.0,-384000.0,-321000.0,-170000.0,-7407000.0,-12672000.0,-12575000.0,-10979000.0,-3688000.0,-4908000.0,-8182000.0,-7162000.0,-7005000.0,-7310000.0,-11642000.0,-8682000.0,46616000.0,39636000.0,6870000.0,5181000.0,10550000.0,642000.0,656000.0,,,,,-620000.0,,,,,,,,,,,,,,,,,
NRU,Nauru,,,,,,,,,,,,,,,,,,,,,,,,,,,,,,,,,,,,,,,,,,,,,,,,,,,,,,,,,,,,,
NZL,New Zealand,,,,,,,,,,,,,,,,,,,,,,,,,,,,,,,,,,,,,,,,,,,,,,,,,,,,,,,,,,,,,
OED,OECD members,,,,,,,,,,,,,,,,,,,,,,,,,,,,,,,,,,,,,,,,,,,,,,,,,,,,,,,,,,,,,
OMN,Oman,,,,,,,,,,,,,,,,,,,,,,,,,,,,,,,,,,,,,,,,,,,,,,,,,,,,,,,,,,,,,
OSS,Other small states,,,,,,,,,,,,,,,,,,,,,,,,,,,,,,,,,,,,,,,,,,,,,,,,,,,,,,,,,,,,,
PAK,Pakistan,,-53000000.0,-53000000.0,-110020000.0,-61041000.0,260980000.0,0.0,,,219000.0,1392000.0,1048000.0,2044000.0,5626000.0,19588000.0,-8032000.0,-5816000.0,21176000.0,-20668000.0,-71637000.0,-2745000.0,87580000.0,11917000.0,-172597000.0,100513000.0,-3917000.0,88422000.0,26761000.0,62841000.0,-9043000.0,-27816000.0,-56629000.0,-32758000.0,-59315000.0,-6227000.0,-41276000.0,7909000.0,92474000.0,-35038000.0,-23063000.0,73217000.0,13449000.0,-577000.0,68935000.0,18951000.0,17807000.0,51218000.0,-27706000.0,-10656000.0,69208000.0,42591000.0,,,,,,,,,,
PAN,Panama,,,,,,,,,,,,,,,,,,,,,,,,,,,,,,,,,,,,,,,,,,,,,,,,,,,,,,,,,,,,,
PER,Peru,,,,-229000.0,-458000.0,-458000.0,-843000.0,-1228000.0,-1228000.0,-3031000.0,-1228000.0,-2203000.0,-2129000.0,-14873000.0,-14812000.0,-14523000.0,-16885000.0,-20936000.0,-20963000.0,-21887000.0,-15065000.0,-19253000.0,-21462000.0,-19723000.0,-17833000.0,-43537000.0,-71963000.0,-48730000.0,-65020000.0,-27741000.0,12006000.0,34424000.0,39459000.0,85938000.0,194439000.0,158770000.0,284027000.0,471365000.0,389661000.0,179354000.0,103251000.0,189363000.0,185646000.0,187501000.0,125887000.0,183334000.0,78742000.0,85277000.0,10684000.0,11332000.0,39797000.0,,,,,,,,,,
PHL,Philippines,,-2248000.0,-2219000.0,-2225000.0,-2256000.0,-2025000.0,-16228000.0,-52670000.0,-63014000.0,-86745000.0,-75635000.0,-416844000.0,-327461000.0,-143151000.0,-25257000.0,37047000.0,3841000.0,63722000.0,20554000.0,31116000.0,-9208000.0,455680000.0,-144371000.0,-40064000.0,-113979000.0,-252010000.0,-90064000.0,-39591000.0,145636000.0,132720000.0,60571000.0,64538000.0,43842000.0,-21100000.0,11968000.0,336755000.0,272342000.0,234492000.0,136191000.0,68001000.0,100135000.0,58030000.0,175809000.0,44114000.0,59233000.0,68092000.0,18830000.0,-25279000.0,-10648000.0,-12022000.0,-2684000.0,,,,,,,,,,
PLW,Palau,,,,,,,,,,,,,,,,,,,,,,,,,,,,,,,,,,,,,,,,,,,,,,,,,,,,,,,,,,,,,
PNG,Papua New Guinea,,,,,,,-5789000.0,-6143000.0,-7668000.0,-7887000.0,-6986000.0,-6549000.0,-5936000.0,-4879000.0,-1626000.0,-4882000.0,5272000.0,14517000.0,24325000.0,-5727000.0,-8843000.0,-8647000.0,-12135000.0,-638000.0,-17802000.0,-26892000.0,-25686000.0,2068000.0,-708000.0,9135000.0,18394000.0,53620000.0,-6962000.0,-6612000.0,-2470000.0,3479000.0,11272000.0,8327000.0,2211000.0,17765000.0,4331000.0,-1268000.0,,-34000.0,3161000.0,,,,,,,,,,,,,,,,
POL,Poland,,,,,,,,,,,,,,,,,,,,,,,,,,,,,,,,,,,,,,,,,,,,,,,,,,,,,,,,,,,,,
PRE,Pre-demographic dividend,,,,,,,,,,,,,,,,,,,,,,,,,,,,,,,,,,,,,,,,,,,,,,,,,,,,,,,,,,,,,
PRI,Puerto Rico,,,,,,,,,,,,,,,,,,,,,,,,,,,,,,,,,,,,,,,,,,,,,,,,,,,,,,,,,,,,,
PRK,"Korea, Dem. People's Rep.",,,,,,,,,,,,,,,,,,,,,,,,,,,,,,,,,,,,,,,,,,,,,,,,,,,,,,,,,,,,,
PRT,Portugal,,,,,,,,,,,,,,,,,,,,,,,,,,,,,,,,,,,,,,,,,,,,,,,,,,,,,,,,,,,,,
PRY,Paraguay,,,,,,,-7111000.0,,,,,,,,,-477000.0,-3297000.0,-918000.0,-1908000.0,-2624000.0,-2920000.0,-9826000.0,-8860000.0,1160000.0,-17151000.0,-23331000.0,-22926000.0,-26738000.0,-75348000.0,-22010000.0,7683000.0,35442000.0,-27151000.0,42058000.0,27506000.0,-17909000.0,9508000.0,15712000.0,17714000.0,24087000.0,59579000.0,16623000.0,8762000.0,1627000.0,7916000.0,5682000.0,-3183000.0,-3652000.0,-3568000.0,796000.0,1912000.0,,,,,,,,,,
PSE,West Bank and Gaza,,,,,,,,,,,,,,,,,,,,,,,,,,,,,,,,,,,,,,,,,,,,,,,,,,,,,,,,,,,,,
PSS,Pacific island small states,,,,,,,,,,,,,,,,,,,,,,,,,,,,,,,,,,,,,,,,,,,,,,,,,,,,,,,,,,,,,
PST,Post-demographic dividend,,,,,,,,,,,,,,,,,,,,,,,,,,,,,,,,,,,,,,,,,,,,,,,,,,,,,,,,,,,,,
PYF,French Polynesia,,,,,,,,,,,,,,,,,,,,,,,,,,,,,,,,,,,,,,,,,,,,,,,,,,,,,,,,,,,,,
QAT,Qatar,,,,,,,,,,,,,,,,,,,,,,,,,,,,,,,,,,,,,,,,,,,,,,,,,,,,,,,,,,,,,
ROU,Romania,,,,,,,,,,,,,,,,,,,,,,,,,,,,,,,,,,,,,,,,,,,,,,,,,,,,,,,,,,,,,
RUS,Russian Federation,,-579000.0,-605000.0,-56630000.0,-111164000.0,0.0,-26022000.0,-979589000.0,-2276432000.0,-2292675000.0,-1025864000.0,318150000.0,-3383094000.0,8278839000.0,-286937000.0,-553211000.0,-486793000.0,-533674000.0,-730984000.0,-1157099000.0,-277551000.0,-459929000.0,-1072612000.0,-647598000.0,248565000.0,475205000.0,-212201000.0,2853901000.0,7040404000.0,,,,,,,,,,,,,,,,,,,,,,,,,,,,,,,,
RWA,Rwanda,,43110000.0,,,,,,,,,,,,,,,0.0,0.0,0.0,0.0,0.0,0.0,,,,,,,-1010000.0,-951000.0,-1814000.0,-2497000.0,-2678000.0,-120000.0,-4821000.0,-2599000.0,5824000.0,-501000.0,3037000.0,-307000.0,-2333000.0,-844000.0,4330000.0,3964000.0,-294000.0,-88000.0,-165000.0,1855000.0,-210000.0,-156000.0,-92000.0,,,,,,,,,,
SAS,South Asia,,-204839000.0,-352629000.0,-409486000.0,619751000.0,248801000.0,-17097000.0,45410000.0,-198981000.0,-7011000.0,-18081000.0,-36828000.0,-44468000.0,74339000.0,-78154000.0,-194325000.0,-336821000.0,-81275000.0,-207454000.0,-500761000.0,513857000.0,-351541000.0,-1068862000.0,-1075602000.0,192859000.0,578382000.0,1279652000.0,1511711000.0,123724000.0,-144597000.0,-193732000.0,-232066000.0,2167879000.0,13936000.0,622907000.0,237740000.0,529962000.0,203215000.0,417423000.0,103991000.0,100153000.0,4483000.0,-34882000.0,-13275000.0,21171000.0,37020000.0,118088000.0,-54364000.0,-33352000.0,51972000.0,1714000.0,,,,,,,,,,
SAU,Saudi Arabia,,,,,,,,,,,,,,,,,,,,,,,,,,,,,,,,,,,,,,,,,,,,,,,,,,,,,,,,,,,,,
SDN,Sudan,,0.0,0.0,0.0,,,,,,,,,,,,,,,,,456137000.0,0.0,,,,,,,,,,,,,-5000000.0,,-226000.0,-1562000.0,-6489000.0,-3320000.0,33312000.0,14812000.0,25874000.0,53299000.0,84984000.0,176900000.0,68086000.0,7474000.0,4678000.0,100000.0,929000.0,,,,,,,,,,
SEN,Senegal,,89271000.0,168094000.0,,,,,,,,,,,,,,,,,,-74000.0,-461000.0,-721000.0,-1466000.0,-986000.0,-8933000.0,-251000.0,-215000.0,-9052000.0,-14327000.0,-10676000.0,-16531000.0,-13814000.0,-9759000.0,448000.0,-3718000.0,4406000.0,33376000.0,-816000.0,-4208000.0,43430000.0,28685000.0,56900000.0,11601000.0,34004000.0,15757000.0,26656000.0,17730000.0,196000.0,14154000.0,7042000.0,,,,,,,,,,
SGP,Singapore,,,,,,,,,,,,,,,,,,,,,,,,,,,,,,,,,,,,,,,,,,,,,,,,,,,,,,,,,,,,,
SLB,Solomon Islands,,,,,,,,,,-59000.0,-189000.0,-196000.0,-116000.0,-426000.0,571000.0,-2136000.0,,,,,,-424000.0,-383000.0,,-872000.0,3767000.0,-416000.0,2916000.0,1333000.0,-407000.0,-418000.0,-358000.0,-384000.0,,3114000.0,,,,,,,,,,,,,,,,,,,,,,,,,,
SLE,Sierra Leone,,,,,,,,,,,,,,0.0,,,,-454000.0,,0.0,0.0,0.0,0.0,,,,,,,,4000000.0,-866000.0,-1028000.0,-1806000.0,-1180000.0,-2613000.0,-2788000.0,-5290000.0,12261000.0,3173000.0,20064000.0,14010000.0,18144000.0,6714000.0,-3039000.0,9881000.0,11737000.0,6027000.0,2958000.0,-2662000.0,-658000.0,,,,,,,,,,
SLV,El Salvador,,,,,,,,-87000.0,-28000.0,-91000.0,-563000.0,-564000.0,-563000.0,-169000.0,-469000.0,1900000.0,-632000.0,-634000.0,-634000.0,-634000.0,-634000.0,-2760000.0,-3528000.0,-4061000.0,-6063000.0,-7726000.0,-7472000.0,-10162000.0,10471000.0,-2569000.0,3348000.0,13896000.0,1375000.0,-4697000.0,-2708000.0,2982000.0,-1911000.0,2993000.0,4824000.0,13198000.0,18343000.0,1788000.0,-3450000.0,-14112000.0,10987000.0,19217000.0,,,,,,,,,,,,,,,
SMR,San Marino,,,,,,,,,,,,,,,,,,,,,,,,,,,,,,,,,,,,,,,,,,,,,,,,,,,,,,,,,,,,,
SOM,Somalia,,,,0.0,0.0,0.0,,0.0,,0.0,0.0,0.0,0.0,0.0,0.0,0.0,0.0,0.0,0.0,0.0,0.0,0.0,,,,,,,,,,,,,,,-300000.0,2432000.0,38204000.0,141977000.0,26766000.0,,232000.0,-700000.0,-387000.0,-494000.0,439000.0,4046000.0,2757000.0,,,,,,,,,,,,
SRB,Serbia,,-60000.0,-171033000.0,-24473000.0,-136967000.0,-36963000.0,-36967000.0,-454356000.0,-71743000.0,-71739000.0,-71734000.0,-22000.0,-11000.0,,,,,,,,35000000.0,0.0,0.0,,,,,,,,-17763000.0,-24373000.0,-80977000.0,-144691000.0,-56952000.0,28252000.0,98802000.0,17275000.0,221802000.0,-22857000.0,-19259000.0,-14087000.0,-13519000.0,-52008000.0,-24782000.0,-39601000.0,-89896000.0,-660000.0,6509000.0,-5145000.0,-39621000.0,,,,,,,,,,
SSA,Sub-Saharan Africa (excluding high income),,-560814000.0,-1054484000.0,-690681000.0,239919000.0,641810000.0,2512393000.0,940545000.0,838878000.0,-25397000.0,439402000.0,822886000.0,-61303000.0,-821348000.0,-731227000.0,-375332000.0,-441301000.0,-892435000.0,-816045000.0,-334209000.0,97807000.0,-157941000.0,-258208000.0,151138000.0,-373273000.0,726758000.0,-265418000.0,529982000.0,195978000.0,57132000.0,939461000.0,1112440000.0,1234595000.0,1314700000.0,1173038000.0,1611245000.0,912238000.0,1764851000.0,2528946000.0,1396718000.0,1964727000.0,1050544000.0,1078953000.0,937537000.0,570134000.0,780569000.0,368855000.0,71837000.0,210959000.0,126961000.0,322170000.0,,,,,,,,,,
SSD,South Sudan,,,,,,,,,,,,,,,,,,,,,,,,,,,,,,,,,,,,,,,,,,,,,,,,,,,,,,,,,,,,,
SSF,Sub-Saharan Africa,,,,,,,,,,,,,,,,,,,,,,,,,,,,,,,,,,,,,,,,,,,,,,,,,,,,,,,,,,,,,
SST,Small states,,,,,,,,,,,,,,,,,,,,,,,,,,,,,,,,,,,,,,,,,,,,,,,,,,,,,,,,,,,,,
STP,Sao Tome and Principe,,,,,,,,,,,,,,,,,,,,,,,,,,,,,,,-114000.0,-411000.0,-35000.0,-70000.0,1097000.0,-174000.0,402000.0,-180000.0,-58000.0,357000.0,28000.0,52000.0,88000.0,154000.0,,,,,,,,,,,,,,,,,
SUR,Suriname,,,,,,,,,,,,,,,,,,,,,,,,,,,,,,,,,,,,,,,,,,,,,,,,,,,,,,,,,,,,,
SVK,Slovak Republic,,,,,,,,,,,,,,,,,,,,,,,,,,,,,,,,,,,,,,,,,,,,,,,,,,,,,,,,,,,,,
SVN,Slovenia,,,,,,,,,,,,,,,,,,,,,,,,,,,,,,,,,,,,,,,,,,,,,,,,,,,,,,,,,,,,,
SWE,Sweden,,,,,,,,,,,,,,,,,,,,,,,,,,,,,,,,,,,,,,,,,,,,,,,,,,,,,,,,,,,,,
SWZ,Eswatini,,,,,,,,,,,,,,,,,,,,,,,,,-259000.0,-306000.0,-1518000.0,-1542000.0,-1555000.0,-1543000.0,-1720000.0,-1378000.0,-1488000.0,-1357000.0,-97000.0,10765000.0,-65000.0,728000.0,796000.0,-121000.0,-135000.0,-68000.0,-66000.0,-89000.0,-96000.0,-96000.0,-88000.0,-80000.0,-75000.0,-84000.0,-84000.0,,,,,,,,,,
SXM,Sint Maarten (Dutch part),,,,,,,,,,,,,,,,,,,,,,,,,,,,,,,,,,,,,,,,,,,,,,,,,,,,,,,,,,,,,
SYC,Seychelles,,,,,,,,,,,,,,,,,,,,,,,,,,,,,,,,,,,,,,,,,,,,,,,,,,,,,,,,,,,,,
SYR,Syrian Arab Republic,,,,,,,,,,,,0.0,0.0,,,,,,,,,,,,,,,,,,,,,,,,,,,,,,,,,,,,,,,,,,,,,,,,
TCA,Turks and Caicos Islands,,,,,,,,,,,,,,,,,,,,,,,,,,,,,,,,,,,,,,,,,,,,,,,,,,,,,,,,,,,,,
TCD,Chad,,0.0,0.0,0.0,0.0,,931492000.0,597500000.0,-1875000.0,-5000000.0,-2000000.0,-1000000.0,,,-500000.0,,,20000000.0,,0.0,-67000.0,-22000.0,,,-121000.0,-32000.0,-262000.0,-1198000.0,-334000.0,-448000.0,-561000.0,-597000.0,766000.0,2967000.0,,-5790000.0,-2740000.0,2137000.0,2081000.0,5744000.0,,8333000.0,14397000.0,6546000.0,1585000.0,-296000.0,8492000.0,-212000.0,-1659000.0,9488000.0,2001000.0,,,,,,,,,,
TEA,East Asia & Pacific (IDA & IBRD countries),,,,,,,,,,,,,,,,,,,,,,,,,,,,,,,,,,,,,,,,,,,,,,,,,,,,,,,,,,,,,
TEC,Europe & Central Asia (IDA & IBRD countries),,,,,,,,,,,,,,,,,,,,,,,,,,,,,,,,,,,,,,,,,,,,,,,,,,,,,,,,,,,,,
TGO,Togo,,,,-10168000.0,-9958000.0,-9986000.0,-11961000.0,48343000.0,,,,,,,,,,,,,,,,,,,,,,,,-2287000.0,-6000.0,-4441000.0,-11150000.0,-4379000.0,-4570000.0,-2111000.0,-5297000.0,-4326000.0,43084000.0,92992000.0,138574000.0,71350000.0,43939000.0,32953000.0,18846000.0,2085000.0,732000.0,96000.0,-493000.0,,,,,,,,,,
THA,Thailand,,,-71000.0,-782000.0,-3566000.0,-4938000.0,-5914000.0,-5976000.0,-20503000.0,-43251000.0,-37711000.0,-47079000.0,-58090000.0,-54817000.0,-55826000.0,-42665000.0,-44080000.0,-60581000.0,-66371000.0,-45747000.0,311283000.0,-157559000.0,-68602000.0,-10031000.0,-98079000.0,-322024000.0,-279388000.0,-28810000.0,23951000.0,74476000.0,107501000.0,35090000.0,80419000.0,-87773000.0,-53776000.0,100651000.0,51986000.0,-3064000.0,197297000.0,239604000.0,-3354000.0,99327000.0,95574000.0,46790000.0,-8642000.0,20340000.0,9917000.0,-3879000.0,-3974000.0,2553000.0,6865000.0,,,,,,,,,,
TJK,Tajikistan,,,,,,,,,,,,,,,-3487000.0,,-760000.0,-969000.0,,,,,,,,,,,,,,,,,,,,,,,,,,,,,,,,,,,,,,,,,,,
TKM,Turkmenistan,,,,,,,,,,,-11537000.0,-11538000.0,-11538000.0,-11538000.0,-20444000.0,-41827000.0,-164604000.0,-230639000.0,-291686000.0,-343042000.0,-253357000.0,99511000.0,418321000.0,658431000.0,140634000.0,19998000.0,14164000.0,82025000.0,,,,,,,,,,,,,,,,,,,,,,,,,,,,,,,,,
TLA,Latin America & the Caribbean (IDA & IBRD countries),,,,,,,,,,,,,,,,,,,,,,,,,,,,,,,,,,,,,,,,,,,,,,,,,,,,,,,,,,,,,
TLS,Timor-Leste,,,,,,,,,,,,,,,,,,,,,,,,,,,,,,,,,,,,,,,,,,,,,,,,,,,,,,,,,,,,,
TMN,Middle East & North Africa (IDA & IBRD countries),,,,,,,,,,,,,,,,,,,,,,,,,,,,,,,,,,,,,,,,,,,,,,,,,,,,,,,,,,,,,
TON,Tonga,,,,,,,-411000.0,-198000.0,-199000.0,-80000.0,-104000.0,778000.0,,,,,,,,,-1257000.0,-1256000.0,-843000.0,-1123000.0,171000.0,,,,,,,,,,,,,,,,,,,,,,,,,,,,,,,,,,,,
TSA,South Asia (IDA & IBRD),,,,,,,,,,,,,,,,,,,,,,,,,,,,,,,,,,,,,,,,,,,,,,,,,,,,,,,,,,,,,
TSS,Sub-Saharan Africa (IDA & IBRD countries),,,,,,,,,,,,,,,,,,,,,,,,,,,,,,,,,,,,,,,,,,,,,,,,,,,,,,,,,,,,,
TTO,Trinidad and Tobago,,,,,,,,,,,,,,,,,,,,,,,,,,,,,,,,,,,,,,,,,,,,,,,,,,,,,,,,,,,,,
TUN,Tunisia,,-2650000.0,-2905000.0,-2331000.0,-2392000.0,-1655000.0,-2234000.0,-1809000.0,-15840000.0,-16113000.0,-42665000.0,-20954000.0,-34601000.0,-60425000.0,-58877000.0,-58911000.0,-70181000.0,-83218000.0,-79683000.0,-60635000.0,-51708000.0,90222000.0,-2237000.0,16602000.0,-112046000.0,-84759000.0,-32179000.0,-49666000.0,-8413000.0,-98988000.0,-104763000.0,-47733000.0,90250000.0,-3897000.0,13013000.0,-29466000.0,-29347000.0,133594000.0,138167000.0,103551000.0,70083000.0,281927000.0,65016000.0,131599000.0,25349000.0,20376000.0,9474000.0,-6789000.0,-24996000.0,-2035000.0,1351000.0,,,,,,,,,,
TUR,Turkey,,-29983000.0,-56905000.0,-158111000.0,-103032000.0,-271745000.0,-355353000.0,-166545000.0,-148689000.0,-89383000.0,10965000.0,48336000.0,180205000.0,17848000.0,-254865000.0,-464242000.0,-361222000.0,-324731000.0,-72295000.0,-260346000.0,-269719000.0,-15698000.0,-238120000.0,177509000.0,-115638000.0,-248622000.0,287735000.0,412810000.0,-275564000.0,806934000.0,-36276000.0,86790000.0,160777000.0,343478000.0,388107000.0,13095000.0,20130000.0,76320000.0,-183046000.0,1074000.0,151096000.0,81498000.0,80907000.0,41617000.0,32482000.0,-23374000.0,27487000.0,19516000.0,19844000.0,21540000.0,-11413000.0,,,,,,,,,,
TUV,Tuvalu,,,,,,,,,,,,,,,,,,,,,,,,,,,,,,,,,,,,,,,,,,,,,,,,,,,,,,,,,,,,,
TZA,Tanzania,,0.0,0.0,0.0,0.0,0.0,,,,,,16940000.0,,0.0,0.0,0.0,,-438000.0,-16726000.0,-10578000.0,-16865000.0,-16581000.0,-12276000.0,-16207000.0,-14265000.0,13464000.0,1036000.0,15993000.0,-37547000.0,-5013000.0,1187000.0,19124000.0,18791000.0,38197000.0,68513000.0,46621000.0,32822000.0,20802000.0,13413000.0,64497000.0,75883000.0,54056000.0,42962000.0,29875000.0,22000000.0,2341000.0,1824000.0,422000.0,267000.0,4441000.0,5600000.0,,,,,,,,,,
UGA,Uganda,,,,,,,,,,,,,,,,,,,,,0.0,0.0,-657000.0,,-1078000.0,-2175000.0,-9426000.0,-780000.0,-5087000.0,-10796000.0,25856000.0,-19667000.0,-18618000.0,114405000.0,32897000.0,1048000.0,-9124000.0,-10760000.0,11103000.0,-12181000.0,27736000.0,40002000.0,82375000.0,34356000.0,5361000.0,-1345000.0,14787000.0,-214000.0,2270000.0,3970000.0,1587000.0,,,,,,,,,,
UKR,Ukraine,,-150744000.0,,,,,179331000.0,-1003550000.0,-3369000.0,-3648000.0,-3508000.0,-2616000.0,-4496000.0,-4112000.0,-6228000.0,-24553000.0,-30154000.0,910437000.0,-36394000.0,2057000.0,11315000.0,-178605000.0,-16861000.0,59947000.0,57124000.0,-46274000.0,180924000.0,310536000.0,364818000.0,,,,,,,,,,,,,,,,,,,,,,,,,,,,,,,,
UMC,Upper middle income,,-929484000.0,715740000.0,-1582351000.0,1755243000.0,1325191000.0,19614642000.0,16046146000.0,5732025000.0,-7648891000.0,365063000.0,-208646000.0,-6261040000.0,7312766000.0,-2647881000.0,-3835326000.0,-2742675000.0,-4549509000.0,-5667528000.0,-5536912000.0,248025000.0,76760000.0,-3318621000.0,3481646000.0,3221156000.0,2509496000.0,3081001000.0,6674884000.0,12342295000.0,4512901000.0,10694998000.0,5532159000.0,3188837000.0,4378785000.0,3347115000.0,2893398000.0,1939909000.0,3354970000.0,3489593000.0,1332641000.0,5196907000.0,1456728000.0,1707316000.0,1808750000.0,1744679000.0,1123206000.0,709523000.0,906503000.0,1037970000.0,378199000.0,370635000.0,,,,,,,,,,
URY,Uruguay,,,,,,,,,,,,,,,,,,,,,,,,,,,,,,,,,,,,,,,,,,,,,,,,,,,,,,,,,,,,,
USA,United States,,,,,,,,,,,,,,,,,,,,,,,,,,,,,,,,,,,,,,,,,,,,,,,,,,,,,,,,,,,,,
UZB,Uzbekistan,,-713000.0,-755000.0,-734000.0,-6340000.0,-11497000.0,-21222000.0,-25173000.0,-52173000.0,-48834000.0,-87453000.0,-113110000.0,-171312000.0,-224398000.0,-272228000.0,-256225000.0,-120933000.0,-12403000.0,-93913000.0,74713000.0,13857000.0,422713000.0,221272000.0,-71484000.0,279379000.0,192455000.0,50560000.0,150950000.0,,,,,,,,,,,,,,,,,,,,,,,,,,,,,,,,,
VCT,St. Vincent and the Grenadines,,,,,,,,-2458000.0,-3010000.0,-3012000.0,-3197000.0,-2827000.0,-3012000.0,-4941000.0,-8188000.0,-7483000.0,-5225000.0,21042000.0,6875000.0,,,57882000.0,,,,,,,,,,,-53000.0,-136000.0,-119000.0,-109000.0,-116000.0,-121000.0,-142000.0,945000.0,135000.0,,,,,,,,,,,,,,,,,,,,
VEN,"Venezuela, RB",,0.0,0.0,0.0,0.0,185620000.0,-12143000.0,-45712000.0,-71162000.0,-94819000.0,-109704000.0,-149663000.0,-218230000.0,-183877000.0,31885000.0,59452000.0,128681000.0,-189119000.0,-516589000.0,-517802000.0,265911000.0,246731000.0,66624000.0,236674000.0,-395296000.0,-363855000.0,38074000.0,-125516000.0,-141201000.0,-342800000.0,-69100000.0,185904000.0,748702000.0,-69705000.0,141403000.0,-67630000.0,46360000.0,240725000.0,284496000.0,-7044000.0,-186612000.0,32799000.0,54820000.0,-440200000.0,-81073000.0,-177902000.0,-24442000.0,45927000.0,122764000.0,100403000.0,36059000.0,,,,,,,,,,
VGB,British Virgin Islands,,,,,,,,,,,,,,,,,,,,,,,,,,,,,,,,,,,,,,,,,,,,,,,,,,,,,,,,,,,,,
VIR,Virgin Islands (U.S.),,,,,,,,,,,,,,,,,,,,,,,,,,,,,,,,,,,,,,,,,,,,,,,,,,,,,,,,,,,,,
VNM,Vietnam,,0.0,,-8916000.0,-16176000.0,-22316000.0,-19535000.0,-27131000.0,-23743000.0,-29506000.0,-58240000.0,-48288000.0,-58537000.0,-68863000.0,-75902000.0,-85194000.0,-90293000.0,-94170000.0,-83001000.0,-39520000.0,-104951000.0,28575000.0,12661000.0,445292000.0,15951000.0,-32503000.0,-122876000.0,-36708000.0,139647000.0,49959000.0,-41000.0,-41000.0,,,,,,,,,,,,,,,,,,,,,,,,,,,,,
VUT,Vanuatu,,,,,,,,,,,,,,,,,,,,,,-79000.0,-80000.0,-118000.0,-149000.0,-178000.0,-203000.0,-198000.0,-203000.0,-215000.0,-210000.0,8000.0,290000.0,176000.0,-121000.0,-18000.0,1410000.0,-21000.0,-22000.0,-25000.0,,,,,,,,,,,,,,,,,,,,,
WLD,World,,,,,,,,,,,,,,,,,,,,,,,,,,,,,,,,,,,,,,,,,,,,,,,,,,,,,,,,,,,,,
WSM,Samoa,,,,,,,,,,,,,,,,,,,,,,,,,,,,,,,,-400000.0,-400000.0,-400000.0,-400000.0,-400000.0,2000000.0,-259000.0,-571000.0,-836000.0,-1223000.0,-1296000.0,-861000.0,2114000.0,-1812000.0,-535000.0,140000.0,3259000.0,1889000.0,-72000.0,-75000.0,,,,,,,,,,
XKX,Kosovo,,,,,,,,,,,,,,,,,,,,,,,,,,,,,,,,,,,,,,,,,,,,,,,,,,,,,,,,,,,,,
YEM,"Yemen, Rep.",,,,,,,,,,,,,,,,,,,,-6161000.0,0.0,0.0,0.0,1000.0,,-1829000.0,-5148000.0,9767000.0,6263000.0,47162000.0,160997000.0,250479000.0,271486000.0,198400000.0,58869000.0,5805000.0,11704000.0,13790000.0,90278000.0,102350000.0,63123000.0,141682000.0,1828000.0,12654000.0,-813000.0,-35000.0,-96000.0,3690000.0,-226000.0,-226000.0,,,,,,,,,,,
ZAF,South Africa,,,,,,,,,-249000000.0,-72609000.0,-145218000.0,-145216000.0,-145218000.0,-145216000.0,-145218000.0,-145216000.0,-145218000.0,-347882000.0,-550552000.0,-230218000.0,-72728000.0,100000000.0,-178210000.0,525072000.0,633561000.0,1538679000.0,265995000.0,,,,,,,,,,,,,,,,,,,,,,,,,,,,,,,,,,
ZMB,Zambia,,44779000.0,-4000.0,40973000.0,5000.0,3000.0,20000.0,,,-2336000.0,-2336000.0,-2336000.0,7009000.0,,,-11526000.0,-2802000.0,-117964000.0,-326000.0,-1443000.0,-548000.0,-388000.0,-47569000.0,-8173000.0,-29519000.0,-42946000.0,-27449000.0,-38677000.0,-23460000.0,-12044000.0,-11232000.0,10137000.0,-32703000.0,-38960000.0,113492000.0,4108000.0,42224000.0,36780000.0,46015000.0,22698000.0,138721000.0,-30693000.0,-106694000.0,-25837000.0,38449000.0,228423000.0,-23719000.0,-72248000.0,33500000.0,-23806000.0,318819000.0,,,,,,,,,,
ZWE,Zimbabwe,,-5810000.0,0.0,-10898000.0,36000000.0,0.0,0.0,-1973000.0,17000.0,1796000.0,0.0,0.0,0.0,0.0,0.0,-232000.0,-598000.0,-15968000.0,0.0,-519000.0,-17994000.0,-45652000.0,-42434000.0,-46119000.0,-59568000.0,-37636000.0,-33857000.0,-30516000.0,-24000.0,66296000.0,35914000.0,9042000.0,-62046000.0,-17738000.0,6766000.0,36714000.0,51634000.0,154709000.0,142862000.0,37730000.0,-15570000.0,4992000.0,10597000.0,,,,,,,,,,,,,,,,,,
