economy,Country Name,YR2020,YR2019,YR2018,YR2017,YR2016,YR2015,YR2014,YR2013,YR2012,YR2011,YR2010,YR2009,YR2008,YR2007,YR2006,YR2005,YR2004,YR2003,YR2002,YR2001,YR2000,YR1999,YR1998,YR1997,YR1996,YR1995,YR1994,YR1993,YR1992,YR1991,YR1990,YR1989,YR1988,YR1987,YR1986,YR1985,YR1984,YR1983,YR1982,YR1981,YR1980,YR1979,YR1978,YR1977,YR1976,YR1975,YR1974,YR1973,YR1972,YR1971,YR1970,YR1969,YR1968,YR1967,YR1966,YR1965,YR1964,YR1963,YR1962,YR1961,YR1960
ABW,Aruba,,,,,,,,,,,,,,,,,,,,,,,,,,,,,,,,,,,,,,,,,,,,,,,,,,,,,,,,,,,,,
AFE,Africa Eastern and Southern,,,,,,,,,,,,,,,,,,,,,,,,,,,,,,,,,,,,,,,,,,,,,,,,,,,,,,,,,,,,,
AFG,Afghanistan,,,,,,,,,,,,,,,,,,,,,,,,,,,,,,,,,,,,,,,,,,,,,,,,,,,,,,,,,,,,,
AFW,Africa Western and Central,,,,,,,,,,,,,,,,,,,,,,,,,,,,,,,,,,,,,,,,,,,,,,,,,,,,,,,,,,,,,
AGO,Angola,,-218595000.0,35319000.0,-1386207000.0,-1883313000.0,-1353318000.0,1355128000.0,1503258000.0,-564776000.0,184714000.0,723317000.0,-358238000.0,2604761000.0,1359119000.0,-1105032000.0,1583030000.0,1016128000.0,716858000.0,-18393000.0,59683000.0,-138641000.0,59448000.0,-153883000.0,503592000.0,273757000.0,292580000.0,250447000.0,18094000.0,8415000.0,386000.0,4010000.0,13096000.0,,,,,,,,,,,,,,,,,,,,,,,,,,,,,
ALB,Albania,,-55951000.0,-52710000.0,-43899000.0,11367000.0,277562000.0,-19285000.0,7586000.0,-63147000.0,-48195000.0,-52484000.0,299276000.0,345436000.0,108000.0,,,,,,,,,,,,1000.0,,,,,,,,,,,,,,,,,,,,,,,,,,,,,,,,,,,
AND,Andorra,,,,,,,,,,,,,,,,,,,,,,,,,,,,,,,,,,,,,,,,,,,,,,,,,,,,,,,,,,,,,
ARB,Arab World,,,,,,,,,,,,,,,,,,,,,,,,,,,,,,,,,,,,,,,,,,,,,,,,,,,,,,,,,,,,,
ARE,United Arab Emirates,,,,,,,,,,,,,,,,,,,,,,,,,,,,,,,,,,,,,,,,,,,,,,,,,,,,,,,,,,,,,
ARG,Argentina,,264468000.0,-13923000.0,-377544000.0,-13094000.0,-81193000.0,590164000.0,-86624000.0,16601000.0,-264341000.0,-177771000.0,-2428110000.0,-175000.0,-456000.0,-2760000.0,-4078000.0,-3952000.0,-4568000.0,-11847000.0,-279506000.0,-182549000.0,-186168000.0,-158754000.0,-110379000.0,-69915000.0,-66948000.0,28558000.0,30044000.0,18701000.0,-282502000.0,-1158576000.0,188787000.0,696032000.0,1547931000.0,827673000.0,2565933000.0,138594000.0,1204546000.0,135821000.0,560136000.0,1692423000.0,1999693000.0,395656000.0,312576000.0,1060248000.0,-95171000.0,178281000.0,254609000.0,159718000.0,69577000.0,-16189000.0,,,,,,,,,,
ARM,Armenia,,-1784000.0,143000.0,8409000.0,7565000.0,21171000.0,6334000.0,4303000.0,10236000.0,2366000.0,,,,,,,,,-5000000.0,,,,5000000.0,,,,,,,,,,,,,,,,,,,,,,,,,,,,,,,,,,,,,,
ASM,American Samoa,,,,,,,,,,,,,,,,,,,,,,,,,,,,,,,,,,,,,,,,,,,,,,,,,,,,,,,,,,,,,
ATG,Antigua and Barbuda,,,,,,,,,,,,,,,,,,,,,,,,,,,,,,,,,,,,,,,,,,,,,,,,,,,,,,,,,,,,,
AUS,Australia,,,,,,,,,,,,,,,,,,,,,,,,,,,,,,,,,,,,,,,,,,,,,,,,,,,,,,,,,,,,,
AUT,Austria,,,,,,,,,,,,,,,,,,,,,,,,,,,,,,,,,,,,,,,,,,,,,,,,,,,,,,,,,,,,,
AZE,Azerbaijan,,-367297000.0,1367142000.0,169360000.0,117374000.0,180665000.0,-45710000.0,188295000.0,155917000.0,299287000.0,182802000.0,268766000.0,107777000.0,106856000.0,103901000.0,219274000.0,-16165000.0,-16239000.0,-16310000.0,-21411000.0,84438000.0,27939000.0,,,,,,,,,,,,,,,,,,,,,,,,,,,,,,,,,,,,,,,
BDI,Burundi,,,,,,,,,,,,,,,,,,,,,,,,,,,,,,-1197000.0,-5240000.0,-4603000.0,-5362000.0,-6061000.0,-5387000.0,-2632000.0,11516000.0,9558000.0,156000.0,-1012000.0,-1379000.0,936000.0,2237000.0,-312000.0,-587000.0,4102000.0,,-21000.0,-37000.0,-16000.0,-16000.0,,,,,,,,,,
BEL,Belgium,,,,,,,,,,,,,,,,,,,,,,,,,,,,,,,,,,,,,,,,,,,,,,,,,,,,,,,,,,,,,
BEN,Benin,,-291392000.0,800810000.0,38734000.0,,,,,,,,,,,,,,,,0.0,-2081000.0,,,,,,,,,,,,,-434000.0,-945000.0,-966000.0,-1268000.0,-1670000.0,7940000.0,,,,,,,-34000.0,-34000.0,-32000.0,,98000.0,,,,,,,,,,,
BFA,Burkina Faso,,-1733000.0,-1733000.0,-1733000.0,-1733000.0,-545000.0,-1733000.0,-2055000.0,0.0,,17747000.0,5653000.0,,,,,,,,,,,,,,,,,,-600000.0,,-200000.0,-400000.0,-2043000.0,-4200000.0,-3250000.0,451000.0,-94000.0,9891000.0,-132000.0,-121000.0,278000.0,768000.0,,,,,,,,,,,,,,,,,,
BGD,Bangladesh,,-3609000.0,-3807000.0,-3126000.0,-3568000.0,-3576000.0,21856000.0,21202000.0,-5000000.0,-4930000.0,-4861000.0,-2910000.0,-4876000.0,-4953000.0,-5186000.0,-4696000.0,10051000.0,-2906000.0,,11305000.0,15053000.0,,-1208000.0,-5601000.0,-5601000.0,-2419000.0,2342000.0,-2776000.0,-2774000.0,-2774000.0,20434000.0,-715000.0,-1411000.0,-725000.0,60000.0,-445000.0,-484000.0,-532000.0,4126000.0,,,-830000.0,-3090000.0,-3086000.0,-3086000.0,-3087000.0,42000.0,13136000.0,,,,,,,,,,,,,
BGR,Bulgaria,,-253000.0,-439000.0,-311000.0,-197000.0,-198000.0,-237000.0,-239000.0,-227000.0,-6803000.0,-6485000.0,-13777000.0,-8149000.0,-10897000.0,2981000.0,8383000.0,25891000.0,23401000.0,17693000.0,3635000.0,23574000.0,-29271000.0,-7151000.0,-28295000.0,-121600000.0,-86083000.0,-193631000.0,-20734000.0,86584000.0,86850000.0,411441000.0,1002052000.0,446931000.0,518623000.0,976681000.0,712166000.0,650054000.0,308304000.0,462731000.0,251037000.0,,,,,,,,,,,,,,,,,,,,,
BHR,Bahrain,,,,,,,,,,,,,,,,,,,,,,,,,,,,,,,,,,,,,,,,,,,,,,,,,,,,,,,,,,,,,
BHS,Bahamas,,,,,,,,,,,,,,,,,,,,,,,,,,,,,,,,,,,,,,,,,,,,,,,,,,,,,,,,,,,,,
BIH,Bosnia and Herzegovina,,-9437000.0,-10606000.0,-32207000.0,-28950000.0,-14401000.0,-13628000.0,-4520000.0,-2283000.0,-4596000.0,1460000.0,2755000.0,26373000.0,4889000.0,-3363000.0,-3336000.0,,,,,,,,,,,,,,,,,,,,,,,,,,,,,,,,,,,,,,,,,,,,,
BLR,Belarus,,-736771000.0,-1309342000.0,-543435000.0,-1084166000.0,162013000.0,-1170934000.0,-206629000.0,922984000.0,-815113000.0,-235267000.0,-325726000.0,562735000.0,1103723000.0,45971000.0,27082000.0,-7089000.0,-18118000.0,-2064000.0,-3198000.0,-10581000.0,-7687000.0,9383000.0,9511000.0,31973000.0,19978000.0,23287000.0,,,,,,,,,,,,,,,,,,,,,,,,,,,,,,,,,,
BLZ,Belize,,-2000000.0,2000000.0,25000000.0,,-265000.0,-529000.0,-629000.0,-4109000.0,-10633000.0,-10500000.0,-8702000.0,1085000.0,495373000.0,-12249000.0,-79259000.0,-111440000.0,54007000.0,-82022000.0,79651000.0,74175000.0,59375000.0,7579000.0,9869000.0,9188000.0,165000.0,2302000.0,-1455000.0,4492000.0,2531000.0,2341000.0,-213000.0,7753000.0,1129000.0,-1198000.0,1221000.0,1450000.0,178000.0,1732000.0,2000000.0,,,,,,,,,,,,,,,,,,,,,
BMU,Bermuda,,,,,,,,,,,,,,,,,,,,,,,,,,,,,,,,,,,,,,,,,,,,,,,,,,,,,,,,,,,,,
BOL,Bolivia,,33227000.0,-1013000.0,-1127000.0,-1193000.0,-1571000.0,-1612000.0,-1618000.0,64812000.0,64970000.0,-67056000.0,6382000.0,65435000.0,-947000.0,1757000.0,2567000.0,-1171000.0,-327000.0,2962000.0,13000.0,-995000.0,937000.0,4779000.0,628000.0,-5027000.0,-3728000.0,3228000.0,-578000.0,300000.0,6574000.0,-1625000.0,,-25000000.0,23815000.0,-450000.0,-3011000.0,-3143000.0,3395000.0,-9731000.0,-22059000.0,5915000.0,29908000.0,91722000.0,195035000.0,134048000.0,65475000.0,47663000.0,1757000.0,22085000.0,8563000.0,-1002000.0,,,,,,,,,,
BRA,Brazil,,-4921182000.0,-137254000.0,-776851000.0,-3266187000.0,802603000.0,11362572000.0,3270112000.0,5136446000.0,3584089000.0,1996018000.0,252831000.0,240474000.0,-2666198000.0,-622992000.0,-302602000.0,2169073000.0,-2935388000.0,-3367801000.0,-2965842000.0,1985419000.0,-6357812000.0,3877656000.0,924429000.0,978779000.0,3290362000.0,1450334000.0,1904200000.0,177570000.0,893307000.0,-753725000.0,-2958552000.0,3249846000.0,-25009000.0,271175000.0,450533000.0,6617247000.0,3824495000.0,5109592000.0,5022250000.0,2443782000.0,4343215000.0,4909834000.0,2281841000.0,2482277000.0,2188592000.0,2048761000.0,1043908000.0,743070000.0,334769000.0,196173000.0,,,,,,,,,,
BRB,Barbados,,,,,,,,,,,,,,,,,,,,,,,,,,,,,,,,,,,,,,,,,,,,,,,,,,,,,,,,,,,,,
BRN,Brunei Darussalam,,,,,,,,,,,,,,,,,,,,,,,,,,,,,,,,,,,,,,,,,,,,,,,,,,,,,,,,,,,,,
BTN,Bhutan,,-4397000.0,-4639000.0,-4436000.0,-4346000.0,-4357000.0,7134000.0,9270000.0,8612000.0,9078000.0,16050000.0,4913000.0,,,,,,,,,,,,,,,,,,,,,,,,,,,,,,,,,,,,,,,,,,,,,,,,,
BWA,Botswana,,,,,,,,,,,,,-3850000.0,-1604000.0,-1604000.0,-1601000.0,-161000.0,-1603000.0,-1603000.0,-1603000.0,-2469000.0,10516000.0,-4418000.0,-4482000.0,-4327000.0,-4542000.0,-158000.0,30242000.0,-166000.0,-156000.0,-162000.0,252000.0,828000.0,1341000.0,114000.0,-14879000.0,-10000000.0,-5000000.0,30000000.0,,,,,,,,,,,,,,,,,,,,,,
CAF,Central African Republic,,,,,,,,,,,,,,,,,,,,,,,,,,,,,,,,,,,,,,,,,,,,,,,,,,,,,,,,,,,,,
CAN,Canada,,,,,,,,,,,,,,,,,,,,,,,,,,,,,,,,,,,,,,,,,,,,,,,,,,,,,,,,,,,,,
CEB,Central Europe and the Baltics,,,,,,,,,,,,,,,,,,,,,,,,,,,,,,,,,,,,,,,,,,,,,,,,,,,,,,,,,,,,,
CHE,Switzerland,,,,,,,,,,,,,,,,,,,,,,,,,,,,,,,,,,,,,,,,,,,,,,,,,,,,,,,,,,,,,
CHI,Channel Islands,,,,,,,,,,,,,,,,,,,,,,,,,,,,,,,,,,,,,,,,,,,,,,,,,,,,,,,,,,,,,
CHL,Chile,,,,,,,,,,,,,,,,,,,,,,,,,,,,,,,,,,,,,,,,,,,,,,,,,,,,,,,,,,,,,
CHN,China,,8592661000.0,4623008000.0,7336345000.0,6226592000.0,-11459319000.0,10334993000.0,10452894000.0,9306825000.0,17039855000.0,1999000000.0,-154263000.0,-237226000.0,-460806000.0,-132216000.0,225608000.0,-195820000.0,-897054000.0,-624826000.0,-1208478000.0,-1884564000.0,-747999000.0,-1481409000.0,730007000.0,782760000.0,2332331000.0,576969000.0,2729304000.0,3015698000.0,613159000.0,2438975000.0,1149517000.0,3715351000.0,4138345000.0,1451726000.0,623016000.0,175190000.0,100332000.0,-223833000.0,-235779000.0,,,,,,,,,,,,,,,,,,,,,
CIV,Cote d'Ivoire,,1289312000.0,249636000.0,5661000.0,,-945000.0,-49880000.0,50004000.0,0.0,-94000.0,86000.0,0.0,0.0,0.0,-282000.0,-33000.0,652000.0,0.0,-20000.0,0.0,-4475000.0,-5219000.0,-3760000.0,,-3274000.0,-4092000.0,-4962000.0,-44379000.0,-10590000.0,-10808000.0,-23388000.0,-8750000.0,-6619000.0,-55121000.0,-41937000.0,66794000.0,-8486000.0,-41618000.0,560602000.0,398866000.0,346745000.0,252490000.0,359144000.0,303411000.0,75561000.0,109592000.0,29376000.0,98267000.0,12012000.0,14973000.0,6560000.0,,,,,,,,,,
CMR,Cameroon,,45492000.0,127076000.0,64487000.0,-13632000.0,78916000.0,26337000.0,84155000.0,57315000.0,3922000.0,6126000.0,7787000.0,-60000.0,-15985000.0,1415000.0,-45000.0,-63000.0,-10787000.0,,0.0,-4000000.0,-4000000.0,-6634000.0,-7942000.0,-28544000.0,-25466000.0,-22856000.0,-15719000.0,-79000.0,-5379000.0,-17058000.0,106185000.0,114635000.0,2416000.0,-17764000.0,-13720000.0,-9040000.0,1516000.0,-29647000.0,30255000.0,96743000.0,29156000.0,28307000.0,6268000.0,30948000.0,-1052000.0,10000000.0,,,,,,,,,,,,,,
COD,"Congo, Dem. Rep.",,-4127000.0,-1793000.0,1115000.0,-2523000.0,2525000.0,,,,,-78000.0,-387000.0,-388000.0,-388000.0,-388000.0,-312000.0,-84000.0,648000.0,,,0.0,0.0,,,,,,,,-3549000.0,-4688000.0,-8614000.0,-10555000.0,-14145000.0,-14835000.0,-21864000.0,1994000.0,-917000.0,-2004000.0,9421000.0,48967000.0,-2435000.0,-4225000.0,80533000.0,36118000.0,-17256000.0,95356000.0,189081000.0,89148000.0,77982000.0,,,,,,,,,,,
COG,"Congo, Rep.",,-70046000.0,-70046000.0,-70046000.0,-70046000.0,-70046000.0,-68393000.0,87057000.0,119857000.0,89902000.0,-34535000.0,-56071000.0,-21884000.0,-21299000.0,0.0,0.0,-6000.0,0.0,-98000.0,-92000.0,0.0,0.0,0.0,,,-45713000.0,-116889000.0,381169000.0,39156000.0,-182103000.0,-81198000.0,-35299000.0,78866000.0,-82868000.0,-17369000.0,28012000.0,76814000.0,45808000.0,253759000.0,143453000.0,276958000.0,19942000.0,-41000.0,-66000.0,2454000.0,240000.0,778000.0,310000.0,,,,,,,,,,,,,
COL,Colombia,,-556835000.0,-769261000.0,-2486447000.0,1449938000.0,2044855000.0,1296028000.0,2039062000.0,-21165000.0,-192844000.0,-176570000.0,-15793000.0,-19387000.0,1462800000.0,-48539000.0,-277045000.0,-147809000.0,-224760000.0,-525737000.0,-656076000.0,-373123000.0,253335000.0,-369514000.0,631146000.0,-66501000.0,-470544000.0,885902000.0,-105024000.0,-252094000.0,-65865000.0,41694000.0,-87152000.0,302996000.0,-404560000.0,838754000.0,117594000.0,372802000.0,335641000.0,473875000.0,742970000.0,449071000.0,446145000.0,-11968000.0,134741000.0,6674000.0,117616000.0,48312000.0,61474000.0,94322000.0,14679000.0,69871000.0,,,,,,,,,,
COM,Comoros,,,,,,,,,,,,,,,,,,,,,,,,,,,,,,,,,,,-145000.0,-112000.0,-115000.0,-139000.0,621000.0,,,,,,,,,,,,,,,,,,,,,,
CPV,Cabo Verde,,2460000.0,0.0,12516000.0,16399000.0,28577000.0,114188000.0,121100000.0,114616000.0,97069000.0,80858000.0,-120000.0,-720000.0,-648000.0,-505000.0,-471000.0,-470000.0,1808000.0,71000.0,170000.0,,,,,,,,,,,,,,,,,,,,,,,,,,,,,,,,,,,,,,,,,
CRI,Costa Rica,,-121610000.0,-606938000.0,-58988000.0,-92103000.0,38579000.0,220851000.0,1014464000.0,18642000.0,71085000.0,-3721000.0,119432000.0,-119077000.0,-6601000.0,38650000.0,-16878000.0,-3440000.0,83487000.0,10812000.0,-4403000.0,-3992000.0,-5005000.0,-1673000.0,22907000.0,6908000.0,-1650000.0,-3545000.0,-1523000.0,-7572000.0,-23880000.0,-93910000.0,-10934000.0,-7550000.0,-3327000.0,-3245000.0,63358000.0,-30267000.0,-28107000.0,3462000.0,82547000.0,79297000.0,129365000.0,-24666000.0,101349000.0,38287000.0,47884000.0,30307000.0,25110000.0,8953000.0,11544000.0,-5373000.0,,,,,,,,,,
CSS,Caribbean small states,,,,,,,,,,,,,,,,,,,,,,,,,,,,,,,,,,,,,,,,,,,,,,,,,,,,,,,,,,,,,
CUB,Cuba,,,,,,,,,,,,,,,,,,,,,,,,,,,,,,,,,,,,,,,,,,,,,,,,,,,,,,,,,,,,,
CUW,Curacao,,,,,,,,,,,,,,,,,,,,,,,,,,,,,,,,,,,,,,,,,,,,,,,,,,,,,,,,,,,,,
CYM,Cayman Islands,,,,,,,,,,,,,,,,,,,,,,,,,,,,,,,,,,,,,,,,,,,,,,,,,,,,,,,,,,,,,
CYP,Cyprus,,,,,,,,,,,,,,,,,,,,,,,,,,,,,,,,,,,,,,,,,,,,,,,,,,,,,,,,,,,,,
CZE,Czech Republic,,,,,,,,,,,,,,,,,,,,,,,,,,,,,,,,,,,,,,,,,,,,,,,,,,,,,,,,,,,,,
DEU,Germany,,,,,,,,,,,,,,,,,,,,,,,,,,,,,,,,,,,,,,,,,,,,,,,,,,,,,,,,,,,,,
DJI,Djibouti,,-273000.0,-137000.0,0.0,-23000.0,-1812000.0,-979000.0,-2625000.0,-2558000.0,-1877000.0,-191000.0,,,,,,,,,,,,,,,,,,,,-380000.0,-380000.0,-1053000.0,-1650000.0,-1465000.0,-987000.0,457000.0,-1623000.0,3532000.0,,4977000.0,,,,,,,,,,,,,,,,,,,,
DMA,Dominica,,-2126000.0,-1506000.0,-1496000.0,-1323000.0,-1323000.0,-1263000.0,-1248000.0,-168000.0,-140000.0,0.0,249000.0,1724000.0,299000.0,37000.0,37000.0,,-274000.0,11196000.0,,,,,,,,,,,-72000.0,-74000.0,-63000.0,-68000.0,-68000.0,292000.0,,,,,,,,,,,,,,,,,,,,,,,,,,
DNK,Denmark,,,,,,,,,,,,,,,,,,,,,,,,,,,,,,,,,,,,,,,,,,,,,,,,,,,,,,,,,,,,,
DOM,Dominican Republic,,1050985000.0,-90567000.0,-297788000.0,-252128000.0,11521000.0,154425000.0,-240989000.0,180307000.0,-94341000.0,-199052000.0,-315197000.0,-64464000.0,-54872000.0,37742000.0,116644000.0,217364000.0,560571000.0,370423000.0,80269000.0,71735000.0,19700000.0,491000.0,982000.0,1460000.0,5044000.0,-72149000.0,4738000.0,15278000.0,778000.0,,-9148000.0,-4564000.0,-4415000.0,-11779000.0,-863000.0,13175000.0,4869000.0,-64214000.0,-32801000.0,41407000.0,65888000.0,80984000.0,54069000.0,42885000.0,14993000.0,26848000.0,29271000.0,15664000.0,572000.0,2468000.0,,,,,,,,,,
DZA,Algeria,,-4505000.0,-6228000.0,-9994000.0,-12807000.0,-17065000.0,-21444000.0,-44608000.0,-25453000.0,-25689000.0,-24872000.0,-20725000.0,23430000.0,21380000.0,-965063000.0,-320185000.0,-308653000.0,-323334000.0,-83298000.0,-356432000.0,-438942000.0,-459657000.0,-471395000.0,-81873000.0,-64348000.0,1906000.0,-281392000.0,-653909000.0,317796000.0,-1155223000.0,-1123828000.0,-549641000.0,687764000.0,561082000.0,1338138000.0,170958000.0,-335398000.0,-97961000.0,-235573000.0,-629068000.0,-26857000.0,775056000.0,1888582000.0,594219000.0,556840000.0,549426000.0,6072000.0,932126000.0,134000000.0,66403000.0,14600000.0,,,,,,,,,,
EAP,East Asia & Pacific (excluding high income),,7199351000.0,8186563000.0,6386795000.0,5797243000.0,-11930699000.0,12650242000.0,11150554000.0,9421442000.0,16675480000.0,3364202000.0,1979816000.0,-39838000.0,-721603000.0,-626004000.0,-1144087000.0,-3175402000.0,-3835027000.0,-2947216000.0,-4541572000.0,-4315526000.0,-3646833000.0,2464833000.0,1883151000.0,1008243000.0,2705133000.0,-81208000.0,1215775000.0,1593725000.0,-256179000.0,-689993000.0,1033650000.0,3251705000.0,3920732000.0,2348238000.0,1450107000.0,391484000.0,1881042000.0,1706847000.0,1065123000.0,2080191000.0,2281347000.0,669106000.0,85591000.0,536339000.0,1201223000.0,271434000.0,161652000.0,164328000.0,19772000.0,47509000.0,,,,,,,,,,
EAR,Early-demographic dividend,,,,,,,,,,,,,,,,,,,,,,,,,,,,,,,,,,,,,,,,,,,,,,,,,,,,,,,,,,,,,
EAS,East Asia & Pacific,,,,,,,,,,,,,,,,,,,,,,,,,,,,,,,,,,,,,,,,,,,,,,,,,,,,,,,,,,,,,
ECA,Europe & Central Asia (excluding high income),,-13059370000.0,-32397655000.0,8315833000.0,-12833031000.0,-25139686000.0,-26341566000.0,40905788000.0,-1899916000.0,9133604000.0,17191334000.0,4498798000.0,12168392000.0,22664867000.0,17657087000.0,9774762000.0,913871000.0,-2765432000.0,-58064000.0,-406331000.0,2799502000.0,1258321000.0,792762000.0,1300288000.0,779967000.0,-292913000.0,-791830000.0,-709238000.0,2087327000.0,-3676373000.0,-3865018000.0,913388000.0,3849911000.0,1879915000.0,696909000.0,2380926000.0,7628107000.0,2225530000.0,1236544000.0,736968000.0,1549641000.0,3022218000.0,209286000.0,379345000.0,136467000.0,743389000.0,11861000.0,1613000.0,97975000.0,25170000.0,-1684000.0,,,,,,,,,,
ECS,Europe & Central Asia,,,,,,,,,,,,,,,,,,,,,,,,,,,,,,,,,,,,,,,,,,,,,,,,,,,,,,,,,,,,,
ECU,Ecuador,,-815524000.0,930861000.0,-234758000.0,329271000.0,481777000.0,1261057000.0,24335000.0,-25011000.0,-24802000.0,-32118000.0,-34877000.0,-37055000.0,-24392000.0,-36527000.0,-84273000.0,-445981000.0,-113404000.0,-29415000.0,15617000.0,-48258000.0,6202000.0,-34897000.0,359672000.0,252882000.0,-2867000.0,41432000.0,60171000.0,-47321000.0,-35049000.0,12220000.0,63420000.0,-114686000.0,29427000.0,260984000.0,159764000.0,377152000.0,17372000.0,-138116000.0,435678000.0,387203000.0,363358000.0,302660000.0,391244000.0,91434000.0,82515000.0,-10070000.0,10995000.0,51220000.0,-514000.0,-262000.0,,,,,,,,,,
EGY,"Egypt, Arab Rep.",,909920000.0,5466578000.0,810308000.0,650820000.0,911010000.0,-31911000.0,-122086000.0,56007000.0,11006000.0,185820000.0,-18845000.0,-387052000.0,6690000.0,-212841000.0,518079000.0,80823000.0,-266090000.0,-15840000.0,171246000.0,74777000.0,-150732000.0,-123554000.0,83760000.0,-87106000.0,-61508000.0,-59496000.0,-158352000.0,-145130000.0,163370000.0,143114000.0,64352000.0,136752000.0,-9730000.0,-746000.0,-2864000.0,-31521000.0,-35644000.0,137051000.0,-52450000.0,-54057000.0,-719000.0,-1462000.0,240759000.0,760000.0,,102008000.0,,-7210000.0,,,,,,,,,,,,
EMU,Euro area,,,,,,,,,,,,,,,,,,,,,,,,,,,,,,,,,,,,,,,,,,,,,,,,,,,,,,,,,,,,,
ERI,Eritrea,,,,,,,,,,,,,,,,,,,,,,,,,,,,,,,,,,,,,,,,,,,,,,,,,,,,,,,,,,,,,
ESP,Spain,,,,,,,,,,,,,,,,,,,,,,,,,,,,,,,,,,,,,,,,,,,,,,,,,,,,,,,,,,,,,
EST,Estonia,,,,,,,,,,,,,,,,,,,,,,,,,,,,,,,,,,,,,,,,,,,,,,,,,,,,,,,,,,,,,
ETH,Ethiopia,,-21421000.0,738252000.0,642788000.0,-14120000.0,583394000.0,-27858000.0,272205000.0,589060000.0,463079000.0,247601000.0,-27083000.0,-31883000.0,-37189000.0,-36751000.0,127041000.0,74736000.0,132077000.0,-4037000.0,-4632000.0,-4037000.0,-4037000.0,-5046000.0,-2019000.0,-225753000.0,-39363000.0,-35122000.0,-35982000.0,76369000.0,177717000.0,-45356000.0,-36367000.0,48985000.0,58854000.0,-12566000.0,-5814000.0,88290000.0,-4645000.0,-2239000.0,14741000.0,-588000.0,9372000.0,-1166000.0,-1200000.0,-1200000.0,-1200000.0,3500000.0,2493000.0,-23000.0,-23000.0,-24000.0,,,,,,,,,,
EUU,European Union,,,,,,,,,,,,,,,,,,,,,,,,,,,,,,,,,,,,,,,,,,,,,,,,,,,,,,,,,,,,,
FCS,Fragile and conflict affected situations,,,,,,,,,,,,,,,,,,,,,,,,,,,,,,,,,,,,,,,,,,,,,,,,,,,,,,,,,,,,,
FIN,Finland,,,,,,,,,,,,,,,,,,,,,,,,,,,,,,,,,,,,,,,,,,,,,,,,,,,,,,,,,,,,,
FJI,Fiji,,,,,,,,,,,,,,,,,,,,,,,-16000.0,-177000.0,-202000.0,-207000.0,-186000.0,-939000.0,-3416000.0,-5869000.0,-5117000.0,-10064000.0,-11253000.0,-11193000.0,-8997000.0,6128000.0,6873000.0,3299000.0,,,31000000.0,10000000.0,,,,,,,,,,,,,,,,,,,
FRA,France,,,,,,,,,,,,,,,,,,,,,,,,,,,,,,,,,,,,,,,,,,,,,,,,,,,,,,,,,,,,,
FRO,Faroe Islands,,,,,,,,,,,,,,,,,,,,,,,,,,,,,,,,,,,,,,,,,,,,,,,,,,,,,,,,,,,,,
FSM,"Micronesia, Fed. Sts.",,,,,,,,,,,,,,,,,,,,,,,,,,,,,,,,,,,,,,,,,,,,,,,,,,,,,,,,,,,,,
GAB,Gabon,,-188738000.0,-209927000.0,-109194000.0,203631000.0,-66549000.0,50022000.0,287685000.0,105725000.0,210348000.0,198842000.0,88632000.0,39770000.0,57572000.0,-4813000.0,-27954000.0,-33889000.0,-30975000.0,-13202000.0,-21917000.0,-6539000.0,9322000.0,-4771000.0,-4762000.0,-30720000.0,-26065000.0,-2594000.0,-140000.0,-11929000.0,-5421000.0,-2941000.0,-3230000.0,49207000.0,-624000.0,25292000.0,-56346000.0,-97167000.0,-93350000.0,-130800000.0,-139681000.0,-90455000.0,145948000.0,-70856000.0,126216000.0,239501000.0,181601000.0,56192000.0,80907000.0,24873000.0,9090000.0,45000.0,,,,,,,,,,
GBR,United Kingdom,,,,,,,,,,,,,,,,,,,,,,,,,,,,,,,,,,,,,,,,,,,,,,,,,,,,,,,,,,,,,
GEO,Georgia,,-51978000.0,-62404000.0,36146000.0,79869000.0,213307000.0,72720000.0,38484000.0,159887000.0,205823000.0,-97064000.0,181241000.0,-69234000.0,,,,,,,,,,,,,,-926000.0,,926000.0,,,,,,,,,,,,,,,,,,,,,,,,,,,,,,,,
GHA,Ghana,,-156557000.0,-277127000.0,-184431000.0,242530000.0,492518000.0,495743000.0,581513000.0,157352000.0,415307000.0,249784000.0,221830000.0,52138000.0,84077000.0,30103000.0,45713000.0,62630000.0,16550000.0,21690000.0,71749000.0,-9297000.0,-24004000.0,15098000.0,-3116000.0,53197000.0,84778000.0,29194000.0,987000.0,-379000.0,-3572000.0,-7476000.0,-46696000.0,-38346000.0,-15000000.0,75000000.0,,,,,,-21500000.0,,20697000.0,-808000.0,-808000.0,-808000.0,-981000.0,-808000.0,-1212000.0,-5000.0,,,,,,,,,,,
GIB,Gibraltar,,,,,,,,,,,,,,,,,,,,,,,,,,,,,,,,,,,,,,,,,,,,,,,,,,,,,,,,,,,,,
GIN,Guinea,,41421000.0,-11813000.0,-11297000.0,-11067000.0,-11096000.0,-13290000.0,-13428000.0,-12744000.0,-13797000.0,-13269000.0,-13928000.0,-14717000.0,-11479000.0,-11301000.0,-11212000.0,181522000.0,,,,0.0,0.0,-16900000.0,-10601000.0,,,,,,,-7272000.0,-3264000.0,-9563000.0,,,,2272000.0,4287000.0,-4494000.0,4806000.0,3708000.0,,5219000.0,,,,,,,,,,,,,,,,,,
GMB,"Gambia, The",,-909000.0,-1920000.0,-1835000.0,-1799000.0,-1802000.0,-851000.0,908000.0,5259000.0,-2242000.0,3179000.0,786000.0,1520000.0,,,-283000.0,-282000.0,,,-300000.0,-310000.0,,,,,,-4001000.0,-4001000.0,-4001000.0,-4001000.0,-3000000.0,,-141000.0,-2000000.0,-43000.0,-117000.0,,1754000.0,1823000.0,-75000.0,6926000.0,450000.0,,,,,,,,,,,,,,,,,,,
GNB,Guinea-Bissau,,,,,,,,,,,,,,,,,,,,,,,,,,,,,,,,,,,,,-358000.0,-357000.0,-714000.0,-714000.0,-357000.0,,2500000.0,,,,,,,,,,,,,,,,,,
GNQ,Equatorial Guinea,,,,,,,,,,,,,,,,,,,,,,,,,,,,,,,,,,,,,,,,,,,,,,,,,,,,,,,,,,,,,
GRC,Greece,,,,,,,,,,,,,,,,,,,,,,,,,,,,,,,,,,,,,,,,,,,,,,,,,,,,,,,,,,,,,
GRD,Grenada,,-395000.0,-1180000.0,-845000.0,,-1069000.0,,,,-2910000.0,-4365000.0,0.0,,,7275000.0,-359000.0,-2511000.0,5980000.0,-1416000.0,-2611000.0,27611000.0,2490000.0,-10000.0,-119000.0,-192000.0,-242000.0,-40000.0,89000.0,-20000.0,-108000.0,-105000.0,-66000.0,-227000.0,-333000.0,-295000.0,-240000.0,182000.0,,1833000.0,,,,,,,,,,,,,,,,,,,,,,
GRL,Greenland,,,,,,,,,,,,,,,,,,,,,,,,,,,,,,,,,,,,,,,,,,,,,,,,,,,,,,,,,,,,,
GTM,Guatemala,,-2482000.0,-1585000.0,-4495000.0,2518000.0,8838000.0,817000.0,17243000.0,14000.0,406000.0,1547000.0,269000.0,232000.0,1645000.0,,,,,,,,-4465000.0,-5582000.0,-10401000.0,-21346000.0,-15712000.0,-17211000.0,-13896000.0,-10125000.0,-1056000.0,-14899000.0,-18727000.0,-36247000.0,-28217000.0,-43921000.0,6581000.0,-7474000.0,109776000.0,32280000.0,53122000.0,11444000.0,6000.0,100000.0,-394000.0,-2094000.0,3262000.0,-15574000.0,-5123000.0,-6134000.0,-6646000.0,19293000.0,,,,,,,,,,
GUM,Guam,,,,,,,,,,,,,,,,,,,,,,,,,,,,,,,,,,,,,,,,,,,,,,,,,,,,,,,,,,,,,
GUY,Guyana,,-768000.0,-722000.0,17307000.0,0.0,0.0,0.0,0.0,,,0.0,,,,,-161000.0,-322000.0,-693000.0,-322000.0,-322000.0,,0.0,-2852000.0,-2168000.0,6185000.0,-2409000.0,0.0,0.0,0.0,0.0,-7507000.0,0.0,0.0,3311000.0,-74000.0,-269000.0,-1231000.0,2002000.0,2009000.0,-10754000.0,9816000.0,-1112000.0,-5032000.0,7920000.0,33305000.0,49318000.0,1163000.0,12500000.0,,,-675000.0,,,,,,,,,,
HIC,High income,,,,,,,,,,,,,,,,,,,,,,,,,,,,,,,,,,,,,,,,,,,,,,,,,,,,,,,,,,,,,
HKG,"Hong Kong SAR, China",,,,,,,,,,,,,,,,,,,,,,,,,,,,,,,,,,,,,,,,,,,,,,,,,,,,,,,,,,,,,
HND,Honduras,,-10030000.0,11976000.0,60363000.0,41910000.0,40072000.0,119189000.0,75295000.0,14631000.0,-6785000.0,-1427000.0,-3252000.0,5966000.0,44536000.0,-1814000.0,7191000.0,58199000.0,-6489000.0,-277000.0,-15575000.0,2645000.0,4730000.0,15820000.0,-3406000.0,19916000.0,-3095000.0,-8909000.0,-7920000.0,-25042000.0,-6014000.0,17728000.0,-8187000.0,-3455000.0,-42703000.0,-5984000.0,-567000.0,3444000.0,33508000.0,18985000.0,49594000.0,45872000.0,71677000.0,29191000.0,36360000.0,15658000.0,754000.0,3038000.0,-300000.0,3000000.0,,,,,,,,,,,,
HPC,Heavily indebted poor countries (HIPC),,,,,,,,,,,,,,,,,,,,,,,,,,,,,,,,,,,,,,,,,,,,,,,,,,,,,,,,,,,,,
HRV,Croatia,,,,,,,,,,,,,,,,,,,,,,,,,,,,,,,,,,,,,,,,,,,,,,,,,,,,,,,,,,,,,
HTI,Haiti,,-1163000.0,,,,,-2326000.0,-2326000.0,,,,,50000000.0,,,,,,,,,,,,,,,,,,,-1200000.0,,,-800000.0,-1178000.0,-2684000.0,-2691000.0,2262000.0,39799000.0,4655000.0,1325000.0,-400000.0,2000000.0,,,,,,,,,,,,,,,,,
HUN,Hungary,,,,,,,,,,,,,,,,,,,,,,,,,,,,,,,,,,,,,,,,,,,,,,,,,,,,,,,,,,,,,
IBD,IBRD only,,,,,,,,,,,,,,,,,,,,,,,,,,,,,,,,,,,,,,,,,,,,,,,,,,,,,,,,,,,,,
IBT,IDA & IBRD total,,,,,,,,,,,,,,,,,,,,,,,,,,,,,,,,,,,,,,,,,,,,,,,,,,,,,,,,,,,,,
IDA,IDA total,,,,,,,,,,,,,,,,,,,,,,,,,,,,,,,,,,,,,,,,,,,,,,,,,,,,,,,,,,,,,
IDB,IDA blend,,,,,,,,,,,,,,,,,,,,,,,,,,,,,,,,,,,,,,,,,,,,,,,,,,,,,,,,,,,,,
IDN,Indonesia,,-1223206000.0,4180574000.0,-347503000.0,-495977000.0,-186706000.0,844688000.0,-20954000.0,-615451000.0,-499656000.0,667309000.0,858995000.0,-237210000.0,-142063000.0,-61330000.0,-1407887000.0,-2241616000.0,-1655691000.0,-1664593000.0,-1342368000.0,-1816256000.0,-2290321000.0,973525000.0,306332000.0,-438458000.0,-640969000.0,-259007000.0,-730185000.0,-50177000.0,-533901000.0,-1223911000.0,127934000.0,-113491000.0,-11788000.0,533220000.0,-245524000.0,166065000.0,1191974000.0,789322000.0,498736000.0,823201000.0,176264000.0,-326957000.0,-232885000.0,312870000.0,1094496000.0,198255000.0,197618000.0,134107000.0,-186000.0,-251000.0,,,,,,,,,,
IDX,IDA only,,,,,,,,,,,,,,,,,,,,,,,,,,,,,,,,,,,,,,,,,,,,,,,,,,,,,,,,,,,,,
IMN,Isle of Man,,,,,,,,,,,,,,,,,,,,,,,,,,,,,,,,,,,,,,,,,,,,,,,,,,,,,,,,,,,,,
IND,India,,496000000.0,2726690000.0,-3708107000.0,-4604093000.0,1210636000.0,4350538000.0,5527288000.0,2265575000.0,2293256000.0,3070691000.0,872366000.0,483850000.0,2712466000.0,1605764000.0,-90097000.0,-351026000.0,-552994000.0,725129000.0,-1072445000.0,-1869480000.0,-130724000.0,92433000.0,-260106000.0,216043000.0,-86923000.0,-178414000.0,883935000.0,1708285000.0,211761000.0,1733834000.0,2419287000.0,2928292000.0,2639349000.0,2093908000.0,1539375000.0,1124708000.0,1100954000.0,711451000.0,470932000.0,605683000.0,33377000.0,22944000.0,90330000.0,-2623000.0,-2942000.0,-8886000.0,-23434000.0,-15467000.0,3474000.0,-6782000.0,,,,,,,,,,
INX,Not classified,,,,,,,,,,,,,,,,,,,,,,,,,,,,,,,,,,,,,,,,,,,,,,,,,,,,,,,,,,,,,
IRL,Ireland,,,,,,,,,,,,,,,,,,,,,,,,,,,,,,,,,,,,,,,,,,,,,,,,,,,,,,,,,,,,,
IRN,"Iran, Islamic Rep.",,0.0,-44652000.0,-158137000.0,-1172598000.0,-282087000.0,-113649000.0,-103969000.0,-127306000.0,-388408000.0,-593223000.0,-834593000.0,-654531000.0,-279493000.0,300623000.0,856103000.0,407947000.0,369360000.0,614076000.0,658624000.0,167240000.0,309855000.0,422142000.0,-38001000.0,218929000.0,-556000.0,-1476000.0,6296000.0,,-1000.0,-30000.0,-355000.0,-892000.0,-1351000.0,-1636000.0,,,,,,-45000000.0,,,,,,,,,,,,,,,,,,,,
IRQ,Iraq,,,,,,,,,,,,,,,,,,,,,,,,,,,,,,,,,,,,,,,,,,,,,,,,,,,,,,,,,,,,,
ISL,Iceland,,,,,,,,,,,,,,,,,,,,,,,,,,,,,,,,,,,,,,,,,,,,,,,,,,,,,,,,,,,,,
ISR,Israel,,,,,,,,,,,,,,,,,,,,,,,,,,,,,,,,,,,,,,,,,,,,,,,,,,,,,,,,,,,,,
ITA,Italy,,,,,,,,,,,,,,,,,,,,,,,,,,,,,,,,,,,,,,,,,,,,,,,,,,,,,,,,,,,,,
JAM,Jamaica,,-37958000.0,-95418000.0,-84518000.0,-76184000.0,-42743000.0,-16147000.0,-42790000.0,-34132000.0,-24659000.0,148617000.0,-21066000.0,24096000.0,-3177000.0,51724000.0,31091000.0,74235000.0,44859000.0,-4437000.0,-72503000.0,-23014000.0,125000.0,-13148000.0,-12091000.0,-27928000.0,-30171000.0,2357000.0,32970000.0,-9760000.0,5268000.0,-1143000.0,-8944000.0,-3946000.0,-10684000.0,-9960000.0,12228000.0,24555000.0,-33216000.0,27559000.0,4367000.0,-11886000.0,-26065000.0,9889000.0,-5362000.0,-5038000.0,139428000.0,143352000.0,96332000.0,19903000.0,6954000.0,-1440000.0,,,,,,,,,,
JOR,Jordan,,-541000.0,-86000.0,15391000.0,51103000.0,13677000.0,911000.0,-524000.0,-482000.0,-32000.0,1609000.0,5636000.0,5630000.0,-64000.0,-64000.0,-64000.0,-64000.0,-64000.0,-64000.0,,-19053000.0,-38029000.0,-57870000.0,-98072000.0,-116731000.0,-134640000.0,-131302000.0,-85535000.0,-89580000.0,-29934000.0,4400000.0,152642000.0,332002000.0,228355000.0,207389000.0,134965000.0,48377000.0,207956000.0,-20975000.0,-51182000.0,-30913000.0,18647000.0,82127000.0,106902000.0,4721000.0,13910000.0,9016000.0,1211000.0,,,,,,,,,,,,,
JPN,Japan,,,,,,,,,,,,,,,,,,,,,,,,,,,,,,,,,,,,,,,,,,,,,,,,,,,,,,,,,,,,,
KAZ,Kazakhstan,,,,,,,,,,,-841000.0,-1681000.0,-10812000.0,-10812000.0,-20812000.0,-72446000.0,-68267000.0,-58233000.0,-16234000.0,-2635000.0,75718000.0,-941000.0,23579000.0,86294000.0,,17362000.0,,,,,,,,,,,,,,,,,,,,,,,,,,,,,,,,,,,
KEN,Kenya,,-869498000.0,-204536000.0,961723000.0,151103000.0,760288000.0,-617905000.0,3005000.0,671810000.0,8695000.0,3678000.0,6568000.0,-6862000.0,-9175000.0,-59282000.0,-43853000.0,-41395000.0,50705000.0,7998000.0,-75108000.0,-28287000.0,22014000.0,10585000.0,-54545000.0,-99370000.0,-92410000.0,-162889000.0,-37806000.0,-10412000.0,230643000.0,4884000.0,126406000.0,26031000.0,123385000.0,112043000.0,-43080000.0,-21784000.0,-6213000.0,-18506000.0,62562000.0,189176000.0,168725000.0,6279000.0,8952000.0,-2912000.0,-703000.0,-426000.0,3106000.0,15333000.0,-63000.0,-68000.0,,,,,,,,,,
KGZ,Kyrgyz Republic,,,,,,,,,,,,,,,,,,,-23012000.0,-4667000.0,-2333000.0,,,23012000.0,7000000.0,,,,,,,,,,,,,,,,,,,,,,,,,,,,,,,,,,,,
KHM,Cambodia,,,,,,,,,,,,,,,,,,,,,,,,,,,,,,,,,,,,,,,,,,,,,,,,,,,,,,,,,,,,,
KIR,Kiribati,,,,,,,,,,,,,,,,,,,,,,,,,,,,,,,,,,,,,,,,,,,,,,,,,,,,,,,,,,,,,
KNA,St. Kitts and Nevis,,,,,,,,,,,-10494000.0,-11860000.0,-14862000.0,-13054000.0,-12966000.0,-13918000.0,-7285000.0,-2801000.0,26572000.0,49226000.0,20005000.0,4676000.0,529000.0,18000000.0,0.0,0.0,0.0,0.0,0.0,0.0,0.0,0.0,0.0,0.0,0.0,0.0,0.0,,,,,,,,,,,,,,,,,,,,,,,,
KOR,"Korea, Rep.",,,,,,,,,,,,,,,,,,,,,,,,,,,,,,,,,,,,,,,,,,,,,,,,,,,,,,,,,,,,,
KWT,Kuwait,,,,,,,,,,,,,,,,,,,,,,,,,,,,,,,,,,,,,,,,,,,,,,,,,,,,,,,,,,,,,
LAC,Latin America & Caribbean (excluding high income),,-7097572000.0,-3297084000.0,-3159836000.0,-6877093000.0,5294784000.0,16693474000.0,17559520000.0,3269539000.0,773626000.0,4008195000.0,-5750865000.0,1391147000.0,-4124492000.0,-2951900000.0,-3078456000.0,1678948000.0,-1699077000.0,-2655115000.0,-1777603000.0,1118298000.0,-8950476000.0,4812692000.0,3526797000.0,2682895000.0,3220221000.0,2288672000.0,1816309000.0,83746000.0,658289000.0,-203083000.0,-2951145000.0,4397365000.0,4446157000.0,734910000.0,4010900000.0,8948273000.0,10020790000.0,12932904000.0,14683174000.0,10177095000.0,13984913000.0,10597990000.0,8301732000.0,8848583000.0,5540501000.0,5039135000.0,3038849000.0,1733262000.0,816924000.0,541754000.0,,,,,,,,,,
LAO,Lao PDR,,-16161000.0,9013000.0,37349000.0,3112000.0,74758000.0,13224000.0,1207000.0,1142000.0,2925000.0,6232000.0,,,14144000.0,95000.0,12136000.0,,,,,,,,,,,,,,,,,,,,,,,,,,,,,,,,,,,,,,,,,,,,,
LBN,Lebanon,,-32855000.0,-33253000.0,-32818000.0,-48468000.0,-49108000.0,-53070000.0,-121719000.0,-52589000.0,-16728000.0,4809000.0,-39559000.0,-8937000.0,277614000.0,-28944000.0,-24434000.0,-28442000.0,-34834000.0,-74658000.0,14519000.0,-297449000.0,84614000.0,48012000.0,107593000.0,118761000.0,331122000.0,-4071000.0,,,,,,,,,-26784000.0,-26786000.0,-26784000.0,-32323000.0,42677000.0,70000000.0,,,,,,,,,,,,,,,,,,,,
LBR,Liberia,,,,,,,,,,,,,,0.0,0.0,0.0,0.0,0.0,0.0,0.0,0.0,0.0,,,,,,,,,,,,,,,,1030000.0,-5046000.0,-1837000.0,2910000.0,59873000.0,33880000.0,30000000.0,,,,,,,,,,,,,,,,,
LBY,Libya,,,,,,,,,,,,,,,,,,,,,,,,,,,,,,,,,,,,,,,,,,,,,,,,,,,,,,,,,,,,,
LCA,St. Lucia,,,,,,,,,,,,,-3072000.0,0.0,-14000.0,-13000.0,-51000.0,-6047000.0,-44000.0,12000.0,-775000.0,9709000.0,273000.0,-9000.0,-10000.0,-10000.0,-10000.0,-528000.0,-771000.0,-929000.0,-782000.0,-359000.0,-15000.0,22000.0,2805000.0,-13000.0,,,,,,,,,,,,,,,,,,,,,,,,,
LCN,Latin America & Caribbean,,,,,,,,,,,,,,,,,,,,,,,,,,,,,,,,,,,,,,,,,,,,,,,,,,,,,,,,,,,,,
LDC,Least developed countries: UN classification,,,,,,,,,,,,,,,,,,,,,,,,,,,,,,,,,,,,,,,,,,,,,,,,,,,,,,,,,,,,,
LIC,Low income,,-36609000.0,666484000.0,574613000.0,-152385000.0,539856000.0,456026000.0,903466000.0,607704000.0,566511000.0,321070000.0,-12805000.0,-1749000.0,-49529000.0,-54611000.0,113022000.0,253482000.0,118707000.0,-3823000.0,-4091000.0,80183000.0,-5693000.0,-29750000.0,-20596000.0,-232377000.0,-85915000.0,-55251000.0,22847000.0,56272000.0,118415000.0,-83914000.0,-42277000.0,70641000.0,-150000.0,-53438000.0,-75059000.0,191061000.0,13407000.0,135685000.0,335951000.0,305872000.0,252482000.0,126626000.0,161911000.0,73933000.0,6536000.0,240340000.0,221821000.0,92613000.0,82967000.0,-147000.0,,,,,,,,,,
LIE,Liechtenstein,,,,,,,,,,,,,,,,,,,,,,,,,,,,,,,,,,,,,,,,,,,,,,,,,,,,,,,,,,,,,
LKA,Sri Lanka,,-303054000.0,659393000.0,518327000.0,-11972000.0,-161496000.0,-1662964000.0,488097000.0,2167222000.0,26013000.0,92302000.0,-107500000.0,132556000.0,214037000.0,153148000.0,136582000.0,56222000.0,120625000.0,50442000.0,-68824000.0,-47414000.0,-81533000.0,87855000.0,82083000.0,5586000.0,36115000.0,13764000.0,-9942000.0,-6463000.0,70260000.0,29990000.0,-44047000.0,-60178000.0,-67365000.0,-17405000.0,-7178000.0,53848000.0,58650000.0,115059000.0,94239000.0,57018000.0,-126000.0,-126000.0,-127000.0,569000.0,-153000.0,-640000.0,-1069000.0,-804000.0,-800000.0,-845000.0,,,,,,,,,,
LMC,Lower middle income,,4380581000.0,9892655000.0,-890894000.0,-5171804000.0,3354162000.0,7628573000.0,10700863000.0,6213685000.0,3957291000.0,4438331000.0,1367919000.0,3588641000.0,4406859000.0,-1387921000.0,1491365000.0,1511616000.0,-1226745000.0,-358781000.0,-2769300000.0,-2231791000.0,-1866818000.0,102663000.0,2341131000.0,828630000.0,463067000.0,-899772000.0,34355000.0,508105000.0,-1452031000.0,-335066000.0,1964256000.0,2950373000.0,2572904000.0,3860546000.0,852565000.0,335934000.0,1524617000.0,4311553000.0,1836356000.0,3146732000.0,3462714000.0,4859052000.0,2798995000.0,1311446000.0,1325028000.0,404652000.0,1081907000.0,238246000.0,117104000.0,61050000.0,,,,,,,,,,
LMY,Low & middle income,,-3334929000.0,-15093249000.0,12842689000.0,-18273958000.0,-27968760000.0,10725624000.0,81385238000.0,18312945000.0,31872889000.0,28873881000.0,-489198000.0,16064008000.0,22226449000.0,12728146000.0,9027660000.0,855733000.0,-8968821000.0,-5024446000.0,-8525338000.0,-3200561000.0,-12445184000.0,7864172000.0,7578856000.0,4446150000.0,6029356000.0,478363000.0,2916580000.0,5830600000.0,-4108031000.0,-4522300000.0,1137653000.0,15423722000.0,13544934000.0,7416401000.0,8306551000.0,17352452000.0,15096373000.0,19197090000.0,17920747000.0,16451255000.0,22403537000.0,16021069000.0,11401727000.0,10867828000.0,8781812000.0,5765601000.0,4565977000.0,2261846000.0,1034627000.0,601957000.0,,,,,,,,,,
LSO,Lesotho,,-156000.0,-172000.0,-236000.0,-326000.0,-4501000.0,-400000.0,-404000.0,-384000.0,-435000.0,-382000.0,-807000.0,-3287000.0,-5451000.0,-8146000.0,-33413000.0,-8623000.0,-6173000.0,-8064000.0,-4746000.0,-4834000.0,8672000.0,25003000.0,21518000.0,30636000.0,13910000.0,-1272000.0,-489000.0,-283000.0,5150000.0,2437000.0,3493000.0,-34000.0,-50000.0,-50000.0,-1050000.0,-2500000.0,-2500000.0,-2500000.0,6750000.0,2000000.0,,,,,,,,,,,,,,,,,,,,
LTE,Late-demographic dividend,,,,,,,,,,,,,,,,,,,,,,,,,,,,,,,,,,,,,,,,,,,,,,,,,,,,,,,,,,,,,
LTU,Lithuania,,,,,,,,,,,,,,,,,,,,,,,,,,,,,,,,,,,,,,,,,,,,,,,,,,,,,,,,,,,,,
LUX,Luxembourg,,,,,,,,,,,,,,,,,,,,,,,,,,,,,,,,,,,,,,,,,,,,,,,,,,,,,,,,,,,,,
LVA,Latvia,,,,,,,,,,,,,,,,,,,,,,,,,,,,,,,,,,,,,,,,,,,,,,,,,,,,,,,,,,,,,
MAC,"Macao SAR, China",,,,,,,,,,,,,,,,,,,,,,,,,,,,,,,,,,,,,,,,,,,,,,,,,,,,,,,,,,,,,
MAF,St. Martin (French part),,,,,,,,,,,,,,,,,,,,,,,,,,,,,,,,,,,,,,,,,,,,,,,,,,,,,,,,,,,,,
MAR,Morocco,,1333739000.0,56417000.0,-645372000.0,-142393000.0,1082903000.0,1331960000.0,175948000.0,112337000.0,186630000.0,198799000.0,473448000.0,110556000.0,131094000.0,-54873000.0,-293373000.0,-299642000.0,-415030000.0,-384552000.0,-267292000.0,-207394000.0,-472401000.0,196888000.0,-51842000.0,-158997000.0,112740000.0,174973000.0,24921000.0,-58908000.0,-3049000.0,149597000.0,162336000.0,151000.0,106803000.0,252800000.0,-2791000.0,92929000.0,-196841000.0,237638000.0,-167498000.0,377048000.0,497860000.0,371978000.0,766364000.0,376261000.0,442385000.0,,,,,,,,,,,,,,,
MCO,Monaco,,,,,,,,,,,,,,,,,,,,,,,,,,,,,,,,,,,,,,,,,,,,,,,,,,,,,,,,,,,,,
MDA,Moldova,,-516000.0,-79000.0,-76000.0,3913000.0,1981000.0,1737000.0,-4354000.0,10972000.0,1727000.0,-2221000.0,-2332000.0,,-913000.0,-836000.0,-908000.0,-295000.0,-1277000.0,,-215000.0,,-546000.0,-46742000.0,-3056000.0,80095000.0,4316000.0,,,,,,,,,,,,,,,,,,,,,,,,,,,,,,,,,,,
MDG,Madagascar,,-9084000.0,40000000.0,43551000.0,-7646000.0,62589000.0,,20113000.0,-15000.0,-43000.0,-13000.0,,100000.0,-428000.0,-3198000.0,-1016000.0,-1088000.0,,0.0,-1912000.0,-378000.0,-436000.0,-455000.0,-467000.0,-1981000.0,-706000.0,-1169000.0,-1331000.0,-2085000.0,-2659000.0,-10413000.0,-11432000.0,-13505000.0,-17879000.0,-46208000.0,-1331000.0,883000.0,6266000.0,14827000.0,25821000.0,50298000.0,71744000.0,5463000.0,6349000.0,471000.0,-480000.0,-479000.0,630000.0,2292000.0,2383000.0,-87000.0,,,,,,,,,,
MDV,Maldives,,65101000.0,310945000.0,743000.0,-13791000.0,4726000.0,-3543000.0,-8851000.0,-21427000.0,10005000.0,12635000.0,-18044000.0,29066000.0,5991000.0,9554000.0,9013000.0,-1899000.0,-1950000.0,13968000.0,2562000.0,-1861000.0,6054000.0,6690000.0,4549000.0,1318000.0,1804000.0,640000.0,-150000.0,1100000.0,-19000.0,-1455000.0,-2910000.0,-1350000.0,-560000.0,307000.0,-2146000.0,4760000.0,3400000.0,,,,,,,,,,,,,,,,,,,,,,,
MEA,Middle East & North Africa,,,,,,,,,,,,,,,,,,,,,,,,,,,,,,,,,,,,,,,,,,,,,,,,,,,,,,,,,,,,,
MEX,Mexico,,-1972543000.0,-2498964000.0,1109953000.0,-4960998000.0,1905754000.0,1689483000.0,11511864000.0,-2063890000.0,-1783051000.0,2783186000.0,-2709248000.0,1108218000.0,343803000.0,-1044917000.0,-390054000.0,-1773569000.0,-71810000.0,473701000.0,1893923000.0,-2263212000.0,-2505492000.0,2342745000.0,-219979000.0,223020000.0,67311000.0,-242882000.0,-128033000.0,305104000.0,129318000.0,2367342000.0,-239739000.0,810764000.0,3996198000.0,-489459000.0,990171000.0,1194550000.0,2647570000.0,6019012000.0,6976299000.0,4180195000.0,3182790000.0,3271929000.0,3115821000.0,3736166000.0,2679787000.0,2083109000.0,1205720000.0,306677000.0,223559000.0,165700000.0,,,,,,,,,,
MHL,Marshall Islands,,,,,,,,,,,,,,,,,,,,,,,,,,,,,,,,,,,,,,,,,,,,,,,,,,,,,,,,,,,,,
MIC,Middle income,,-3298320000.0,-15759733000.0,12268076000.0,-18121573000.0,-28508616000.0,10269598000.0,80481772000.0,17705241000.0,31306378000.0,28552811000.0,-476393000.0,16065757000.0,22275978000.0,12782757000.0,8914638000.0,602251000.0,-9087528000.0,-5020623000.0,-8521247000.0,-3280744000.0,-12439491000.0,7893922000.0,7599452000.0,4678527000.0,6115271000.0,533614000.0,2893733000.0,5774328000.0,-4226446000.0,-4438386000.0,1179930000.0,15353081000.0,13545084000.0,7469839000.0,8381610000.0,17161391000.0,15082966000.0,19061405000.0,17584796000.0,16145383000.0,22151055000.0,15894443000.0,11239816000.0,10793895000.0,8775276000.0,5525261000.0,4344156000.0,2169233000.0,951660000.0,602104000.0,,,,,,,,,,
MKD,North Macedonia,,-42242000.0,-95280000.0,-62945000.0,-128167000.0,-749000.0,-18187000.0,354781000.0,86647000.0,233082000.0,-320000.0,-4755000.0,26106000.0,-2917000.0,-198306000.0,-12431000.0,-1915000.0,1598000.0,1385000.0,-818000.0,-1706000.0,21925000.0,-6000.0,178000.0,-972000.0,-3000.0,-4000.0,-302000.0,,,,,,,,,,,,,,,,,,,,,,,,,,,,,,,,,
MLI,Mali,,-128000.0,-69000.0,7000.0,-334000.0,-583000.0,-886000.0,-1048000.0,-470000.0,-1288000.0,-1126000.0,1499000.0,-1073000.0,-1012000.0,1474000.0,3169000.0,1803000.0,,,,,,,,,,,-651000.0,,,-183000.0,-157000.0,-392000.0,-1423000.0,-1874000.0,-1142000.0,1660000.0,-231000.0,3017000.0,2096000.0,3966000.0,941000.0,6234000.0,,,,,,,,,,,,,,,,,,
MLT,Malta,,,,,,,,,,,,,,,,,,,,,,,,,,,,,,,,,,,,,,,,,,,,,,,,,,,,,,,,,,,,,
MMR,Myanmar,,-240000.0,-604000.0,-552000.0,-549000.0,-303000.0,-1317000.0,-209000.0,-596000.0,-701000.0,-674000.0,-708000.0,-748000.0,-696000.0,-638000.0,-633000.0,-632000.0,-574000.0,-480000.0,-227000.0,0.0,0.0,0.0,440000000.0,0.0,3000.0,7000.0,19000.0,56000.0,134000.0,300000.0,-10908000.0,-3930000.0,-2949000.0,-8216000.0,-6429000.0,-8712000.0,8371000.0,2379000.0,-3686000.0,2679000.0,11643000.0,38751000.0,,,,,,,,,,,,,,,,,,
MNA,Middle East & North Africa (excluding high income),,2133083000.0,5361829000.0,-2841000.0,-755799000.0,1883972000.0,1305495000.0,-214399000.0,-64267000.0,-260902000.0,-658634000.0,-439026000.0,-877150000.0,149192000.0,-958882000.0,708288000.0,-77921000.0,-653840000.0,17884000.0,151693000.0,-367302000.0,-840064000.0,365000.0,-93891000.0,269419000.0,242823000.0,-385931000.0,-909672000.0,111390000.0,-1088207000.0,-852656000.0,-276930000.0,1149680000.0,765563000.0,1959830000.0,377093000.0,-362041000.0,-56801000.0,4364000.0,-858496000.0,321808000.0,1347286000.0,2551225000.0,1907744000.0,938582000.0,1005721000.0,117096000.0,933337000.0,126790000.0,66403000.0,14600000.0,,,,,,,,,,
MNE,Montenegro,,-109790000.0,254318000.0,126973000.0,-85268000.0,-70676000.0,-25310000.0,9256000.0,201187000.0,32447000.0,56744000.0,180227000.0,-350000.0,10410000.0,2811000.0,,,,,,,,,,,,,,,,,,,,,,,,,,,,,,,,,,,,,,,,,,,,,,
MNG,Mongolia,,-60049000.0,-22698000.0,11399000.0,263396000.0,13721000.0,5558000.0,,,,,,,,,,,,,,-146000.0,-169000.0,-3559000.0,-4000000.0,-4000000.0,-5235000.0,-2000000.0,,18000000.0,,,,,,,,,,,,,,,,,,,,,,,,,,,,,,,,
MNP,Northern Mariana Islands,,,,,,,,,,,,,,,,,,,,,,,,,,,,,,,,,,,,,,,,,,,,,,,,,,,,,,,,,,,,,
MOZ,Mozambique,,-185345000.0,-129201000.0,-104633000.0,-112392000.0,-106644000.0,497237000.0,629970000.0,19001000.0,124475000.0,70832000.0,20356000.0,-846000.0,6206000.0,,,,,,,-674000.0,-442000.0,,-8000.0,-115000.0,,-515000.0,3338000.0,-2210000.0,-14609000.0,-3403000.0,909000.0,-4069000.0,19467000.0,8882000.0,-768000.0,107322000.0,,,,,,,,,,,,,,,,,,,,,,,,
MRT,Mauritania,,,,,,,,,,-1178000.0,-11198000.0,-1347000.0,-6475000.0,-1496000.0,-1711000.0,14084000.0,211000.0,3388000.0,3691000.0,2032000.0,,,,,,,,,,,,-5568000.0,,-1827000.0,-4094000.0,-1950000.0,-95000.0,-145000.0,-1639000.0,-12234000.0,-4525000.0,-14004000.0,17977000.0,3913000.0,-2993000.0,1685000.0,-1340000.0,15788000.0,,,,,,,,,,,,,
MUS,Mauritius,,,,,,,,,,,,,,,,,,,,,,,,,,,,,,,,,,,,,,,,,,,,,,,,,,,,,,,,,,,,,
MWI,Malawi,,,,,,-1928000.0,-3077000.0,,,,,,,-920000.0,-1424000.0,-2416000.0,-1915000.0,,,,,,,,,-10454000.0,-8204000.0,-8204000.0,-8525000.0,,,,,-8418000.0,-29335000.0,-29671000.0,-23172000.0,-12856000.0,-15351000.0,5390000.0,17456000.0,24160000.0,41387000.0,26112000.0,21881000.0,11147000.0,979000.0,5471000.0,-13000.0,180000.0,13000.0,,,,,,,,,,
MYS,Malaysia,,,,,,,,,,,,,,,,,,,,,,,,,,,,,,,,,,,,,,,,,,,,,,,,,,,,,,,,,,,,,
NAC,North America,,,,,,,,,,,,,,,,,,,,,,,,,,,,,,,,,,,,,,,,,,,,,,,,,,,,,,,,,,,,,
NAM,Namibia,,,,,,,,,,,,,,,,,,,,,,,,,,,,,,,,,,,,,,,,,,,,,,,,,,,,,,,,,,,,,
NCL,New Caledonia,,,,,,,,,,,,,,,,,,,,,,,,,,,,,,,,,,,,,,,,,,,,,,,,,,,,,,,,,,,,,
NER,Niger,,,,,,,,,,,,,,,,,,,,,,0.0,,,1500000.0,,,,,-18501000.0,5319000.0,8783000.0,-7572000.0,-3426000.0,-3144000.0,-1571000.0,-3328000.0,9729000.0,-2968000.0,50491000.0,54816000.0,8836000.0,5322000.0,-240000.0,640000.0,,,,,,,,,,,,,,,,
NGA,Nigeria,,,,,,,,,,,,-18390000.0,23564000.0,18200000.0,32414000.0,23328000.0,-942000.0,-3442000.0,,,,,,,,,,,,-53667000.0,-388040000.0,-129284000.0,-136983000.0,-125595000.0,-426419000.0,-1117812000.0,-644190000.0,80883000.0,943705000.0,732078000.0,491113000.0,775615000.0,1396728000.0,-5389000.0,-12818000.0,-4039000.0,-5252000.0,-5688000.0,14960000.0,-962000.0,3003000.0,,,,,,,,,,
NIC,Nicaragua,,3664000.0,1528000.0,931000.0,6338000.0,-740000.0,-884000.0,-893000.0,-849000.0,-918000.0,-884000.0,-926000.0,-979000.0,-7000.0,9011000.0,-145000.0,-3108000.0,-6223000.0,-4969000.0,2442000.0,-752000.0,-3912000.0,-8107000.0,-3851000.0,8527000.0,-76873000.0,229000.0,1075000.0,1734000.0,,-283000.0,-1014000.0,2953000.0,4677000.0,-265000.0,3468000.0,939000.0,687000.0,-12513000.0,-10193000.0,-20184000.0,-2606000.0,3856000.0,61796000.0,-5543000.0,96567000.0,81593000.0,66080000.0,38418000.0,7082000.0,1087000.0,,,,,,,,,,
NLD,Netherlands,,,,,,,,,,,,,,,,,,,,,,,,,,,,,,,,,,,,,,,,,,,,,,,,,,,,,,,,,,,,,
NOR,Norway,,,,,,,,,,,,,,,,,,,,,,,,,,,,,,,,,,,,,,,,,,,,,,,,,,,,,,,,,,,,,
NPL,Nepal,,,,,,,,,,,,,,,,,,,,,,,,,,,,,,,,,,-2250000.0,2250000.0,,,,,,,,,,,,,,,,,,,,,,,,,,
NRU,Nauru,,,,,,,,,,,,,,,,,,,,,,,,,,,,,,,,,,,,,,,,,,,,,,,,,,,,,,,,,,,,,
NZL,New Zealand,,,,,,,,,,,,,,,,,,,,,,,,,,,,,,,,,,,,,,,,,,,,,,,,,,,,,,,,,,,,,
OED,OECD members,,,,,,,,,,,,,,,,,,,,,,,,,,,,,,,,,,,,,,,,,,,,,,,,,,,,,,,,,,,,,
OMN,Oman,,,,,,,,,,,,,,,,,,,,,,,,,,,,,,,,,,,,,,,,,,,,,,,,,,,,,,,,,,,,,
OSS,Other small states,,,,,,,,,,,,,,,,,,,,,,,,,,,,,,,,,,,,,,,,,,,,,,,,,,,,,,,,,,,,,
PAK,Pakistan,,120853000.0,212053000.0,1733143000.0,603416000.0,262834000.0,472465000.0,130070000.0,,,-75210000.0,-50208000.0,121773000.0,-3225000.0,-23444000.0,-15000000.0,-45266000.0,-182284000.0,-281532000.0,-170311000.0,-30305000.0,-64802000.0,74589000.0,698927000.0,-72302000.0,-50838000.0,-453149000.0,409990000.0,148240000.0,-80624000.0,-80490000.0,2003000.0,-156279000.0,173593000.0,40353000.0,-152285000.0,161717000.0,-173639000.0,471638000.0,-800000.0,90956000.0,14683000.0,9606000.0,-11000.0,-155000.0,-177000.0,-265000.0,-362000.0,-419000.0,-706000.0,-1057000.0,,,,,,,,,,
PAN,Panama,,,,,,,,,,,,,,,,,,,,,,,,,,,,,,,,,,,,,,,,,,,,,,,,,,,,,,,,,,,,,
PER,Peru,,,,,-692000.0,-1384000.0,-1384000.0,-1384000.0,-6716000.0,-6847000.0,-6718000.0,-6716000.0,-6718000.0,-8694000.0,-9389000.0,-10517000.0,-9644000.0,-9160000.0,-9161000.0,-8168000.0,-97984000.0,-31271000.0,-26024000.0,-26387000.0,-535434000.0,-20965000.0,-37242000.0,-36822000.0,-41497000.0,38280000.0,59806000.0,43817000.0,-11125000.0,-18589000.0,-1881000.0,60693000.0,381506000.0,538561000.0,604953000.0,-139023000.0,-197161000.0,247138000.0,-103861000.0,130206000.0,306987000.0,346536000.0,478150000.0,221083000.0,92340000.0,-21777000.0,-22073000.0,,,,,,,,,,
PHL,Philippines,,450517000.0,-28321000.0,-42687000.0,136533000.0,-95171000.0,-96206000.0,-113333000.0,-5602000.0,49846000.0,87207000.0,206449000.0,990000.0,-211811000.0,-667100000.0,-47974000.0,32426000.0,-90630000.0,250810000.0,-431007000.0,533509000.0,467433000.0,695977000.0,421217000.0,-21683000.0,26311000.0,-57681000.0,-715563000.0,-1546621000.0,-493840000.0,-575990000.0,-80972000.0,-459448000.0,-422892000.0,425976000.0,397868000.0,95150000.0,513702000.0,834381000.0,443566000.0,613567000.0,627246000.0,292285000.0,272569000.0,109288000.0,108505000.0,68568000.0,-51981000.0,16025000.0,-8547000.0,10879000.0,,,,,,,,,,
PLW,Palau,,,,,,,,,,,,,,,,,,,,,,,,,,,,,,,,,,,,,,,,,,,,,,,,,,,,,,,,,,,,,
PNG,Papua New Guinea,,116420000.0,189638000.0,128843000.0,216196000.0,-362000.0,-362000.0,-362000.0,-543000.0,-181000.0,-362000.0,-362000.0,-362000.0,-362000.0,-4119000.0,-32324000.0,-55715000.0,-51547000.0,-18900000.0,22918000.0,81067000.0,-7462000.0,-7765000.0,-53599000.0,-36532000.0,-49603000.0,30560000.0,-62357000.0,-31958000.0,-63421000.0,-108955000.0,-10762000.0,-31751000.0,-38840000.0,18416000.0,-13679000.0,-13597000.0,120124000.0,96430000.0,93078000.0,58435000.0,27049000.0,-1634000.0,22715000.0,14284000.0,-439000.0,5817000.0,15938000.0,9465000.0,28567000.0,37244000.0,,,,,,,,,,
POL,Poland,,,,,,,,,,,,,,,,,,,,,,,,,,,,,,,,,,,,,,,,,,,,,,,,,,,,,,,,,,,,,
PRE,Pre-demographic dividend,,,,,,,,,,,,,,,,,,,,,,,,,,,,,,,,,,,,,,,,,,,,,,,,,,,,,,,,,,,,,
PRI,Puerto Rico,,,,,,,,,,,,,,,,,,,,,,,,,,,,,,,,,,,,,,,,,,,,,,,,,,,,,,,,,,,,,
PRK,"Korea, Dem. People's Rep.",,,,,,,,,,,,,,,,,,,,,,,,,,,,,,,,,,,,,,,,,,,,,,,,,,,,,,,,,,,,,
PRT,Portugal,,,,,,,,,,,,,,,,,,,,,,,,,,,,,,,,,,,,,,,,,,,,,,,,,,,,,,,,,,,,,
PRY,Paraguay,,-12903000.0,-25806000.0,-25806000.0,-38710000.0,-12903000.0,-31710000.0,-38710000.0,-39453000.0,-33615000.0,-15145000.0,-41211000.0,-28308000.0,-28334000.0,-29027000.0,-16938000.0,-5733000.0,7559000.0,-3463000.0,-3421000.0,-3520000.0,390162000.0,-3751000.0,-5667000.0,-4783000.0,1718000.0,-11207000.0,-28320000.0,-88449000.0,-31171000.0,-7390000.0,-221000.0,-5549000.0,-4832000.0,19043000.0,19054000.0,36369000.0,57979000.0,120186000.0,43031000.0,16188000.0,30638000.0,28231000.0,6083000.0,1071000.0,8040000.0,7173000.0,3835000.0,3281000.0,-328000.0,1534000.0,,,,,,,,,,
PSE,West Bank and Gaza,,,,,,,,,,,,,,,,,,,,,,,,,,,,,,,,,,,,,,,,,,,,,,,,,,,,,,,,,,,,,
PSS,Pacific island small states,,,,,,,,,,,,,,,,,,,,,,,,,,,,,,,,,,,,,,,,,,,,,,,,,,,,,,,,,,,,,
PST,Post-demographic dividend,,,,,,,,,,,,,,,,,,,,,,,,,,,,,,,,,,,,,,,,,,,,,,,,,,,,,,,,,,,,,
PYF,French Polynesia,,,,,,,,,,,,,,,,,,,,,,,,,,,,,,,,,,,,,,,,,,,,,,,,,,,,,,,,,,,,,
QAT,Qatar,,,,,,,,,,,,,,,,,,,,,,,,,,,,,,,,,,,,,,,,,,,,,,,,,,,,,,,,,,,,,
ROU,Romania,,,,,,,,,,,,,,,,,,,,,,,,,,,,,,,,,,,,,,,,,,,,,,,,,,,,,,,,,,,,,
RUS,Russian Federation,,-11884292000.0,-34239240000.0,9787196000.0,-13867668000.0,-25341760000.0,-24345190000.0,40914030000.0,-3435223000.0,8359538000.0,16742961000.0,5245192000.0,11152649000.0,21154472000.0,17950849000.0,10026871000.0,-24883000.0,-506492000.0,-26634000.0,247380000.0,-19371000.0,-35014000.0,-264313000.0,-26853000.0,-24425000.0,80243000.0,-68239000.0,-385588000.0,2294102000.0,,,,,,,,,,,,,,,,,,,,,,,,,,,,,,,,
RWA,Rwanda,,,,,,,,,,,,,,,,,,,,,,,,,,,,,,,,,,,,,,,,,,,,,,,,,,,,,,,,,,,,,
SAS,South Asia,,370894000.0,3900635000.0,-1463456000.0,-4034354000.0,1308767000.0,3185486000.0,6167076000.0,4414982000.0,2333422000.0,3111607000.0,698617000.0,762369000.0,2924316000.0,1739836000.0,35802000.0,-331918000.0,-619509000.0,508007000.0,-1297713000.0,-1934007000.0,-271005000.0,260359000.0,519852000.0,145044000.0,-102261000.0,-614817000.0,1281057000.0,1848388000.0,198604000.0,1702313000.0,2373618000.0,2709074000.0,2742042000.0,2119473000.0,1377321000.0,1344549000.0,988833000.0,1302274000.0,564371000.0,753657000.0,47104000.0,29334000.0,87106000.0,-5295000.0,-6359000.0,-9749000.0,-11729000.0,-16690000.0,1968000.0,-8684000.0,,,,,,,,,,
SAU,Saudi Arabia,,,,,,,,,,,,,,,,,,,,,,,,,,,,,,,,,,,,,,,,,,,,,,,,,,,,,,,,,,,,,
SDN,Sudan,,0.0,0.0,,,,,,,,,,,,,,,,,,87142000.0,0.0,,,,,,,,,,,,,,,-321000.0,,121929000.0,182886000.0,104324000.0,31762000.0,5214000.0,-1375000.0,5970000.0,13461000.0,129406000.0,28242000.0,4717000.0,2472000.0,-3399000.0,,,,,,,,,,
SEN,Senegal,,610468000.0,9357000.0,25966000.0,1952000.0,,10535000.0,,1963000.0,,-1782000.0,-2651000.0,-2714000.0,-4463000.0,1571000.0,-2488000.0,-1743000.0,18000.0,798000.0,6973000.0,4789000.0,,,-169000.0,-5620000.0,-12444000.0,-3089000.0,-4513000.0,-11961000.0,-14185000.0,-7878000.0,-34119000.0,-35760000.0,-12312000.0,28290000.0,-7048000.0,-10224000.0,16260000.0,-1100000.0,-13266000.0,-35298000.0,19256000.0,36258000.0,31072000.0,8818000.0,5410000.0,9632000.0,35900000.0,,,,,,,,,,,,,
SGP,Singapore,,,,,,,,,,,,,,,,,,,,,,,,,,,,,,,,,,,,,,,,,,,,,,,,,,,,,,,,,,,,,
SLB,Solomon Islands,,,,,,,,,,,,,,,,,,,,,,,,,,,-2728000.0,-2726000.0,-2726000.0,-2728000.0,-2728000.0,-1364000.0,,,4000000.0,6000000.0,5000000.0,,,,,,,,,,,,,,,,,,,,,,,,
SLE,Sierra Leone,,,,,,,,,,,,,,,-43000.0,,,,,0.0,,0.0,,-2000.0,,-28798000.0,-490000.0,,,,,11594000.0,,,-409000.0,-1348000.0,-880000.0,-2192000.0,-1218000.0,7014000.0,-4056000.0,12252000.0,1815000.0,1108000.0,-76000.0,-1210000.0,14917000.0,-613000.0,-1939000.0,-634000.0,-743000.0,,,,,,,,,,
SLV,El Salvador,,8943000.0,3275000.0,-19327000.0,-1057000.0,-5030000.0,27070000.0,-1378000.0,-1214000.0,-1318000.0,-67233000.0,-3382000.0,61613000.0,-29679000.0,-6316000.0,-15361000.0,-13295000.0,-13332000.0,-8906000.0,6253000.0,84661000.0,9960000.0,-61923000.0,7873000.0,31209000.0,-20121000.0,-52393000.0,11139000.0,-15743000.0,24256000.0,15664000.0,43283000.0,-3189000.0,-19214000.0,-30350000.0,-34690000.0,-14721000.0,-22304000.0,40152000.0,-1460000.0,969000.0,-1510000.0,-1509000.0,-31510000.0,15427000.0,-40486000.0,60350000.0,-9511000.0,458000.0,735000.0,-1638000.0,,,,,,,,,,
SMR,San Marino,,,,,,,,,,,,,,,,,,,,,,,,,,,,,,,,,,,,,,,,,,,,,,,,,,,,,,,,,,,,,
SOM,Somalia,,,,,,,,,,,,,,,,,,,,,,,,,,,,,,,,,,,,,,,,,,,,,-30000.0,-307000.0,-307000.0,-534000.0,-533000.0,-502000.0,-498000.0,,,,,,,,,,
SRB,Serbia,,-1300000.0,-19016000.0,-402570000.0,-77960000.0,-68475000.0,-182243000.0,70260000.0,17417000.0,342843000.0,218483000.0,134767000.0,1320000.0,33788000.0,50002000.0,-222000.0,0.0,0.0,,0.0,0.0,0.0,0.0,,,,,,,-506802000.0,-891408000.0,-559320000.0,227729000.0,-276785000.0,-726328000.0,16712000.0,2020000.0,620958000.0,15184000.0,316536000.0,646689000.0,-16785000.0,-7966000.0,14382000.0,34872000.0,5180000.0,15406000.0,8859000.0,101329000.0,-634000.0,-612000.0,,,,,,,,,,
SSA,Sub-Saharan Africa (excluding high income),,7118685000.0,3152463000.0,2766194000.0,429076000.0,614102000.0,3232493000.0,5816699000.0,3171165000.0,3217659000.0,1857177000.0,-1476538000.0,2659088000.0,1334169000.0,-2131991000.0,2731351000.0,1848155000.0,604064000.0,110058000.0,-653812000.0,-501526000.0,4873000.0,-466839000.0,442659000.0,-439418000.0,256353000.0,63477000.0,222349000.0,106024000.0,55835000.0,-613863000.0,45072000.0,65987000.0,-209475000.0,-442959000.0,-1289796000.0,-597920000.0,36979000.0,2014157000.0,1729607000.0,1568863000.0,1720669000.0,1964128000.0,640209000.0,413152000.0,297337000.0,335824000.0,442255000.0,156181000.0,104390000.0,8462000.0,,,,,,,,,,
SSD,South Sudan,,,,,,,,,,,,,,,,,,,,,,,,,,,,,,,,,,,,,,,,,,,,,,,,,,,,,,,,,,,,,
SSF,Sub-Saharan Africa,,,,,,,,,,,,,,,,,,,,,,,,,,,,,,,,,,,,,,,,,,,,,,,,,,,,,,,,,,,,,
SST,Small states,,,,,,,,,,,,,,,,,,,,,,,,,,,,,,,,,,,,,,,,,,,,,,,,,,,,,,,,,,,,,
STP,Sao Tome and Principe,,,,,,10000000.0,,,,,,,,,,,,,,,,,,,,,,,,,,,,,,,5000000.0,,,,,,,,,,,,,,,,,,,,,,,,
SUR,Suriname,,,,,,,,,,,,,,,,,,,,,,,,,,,,,,,,,,,,,,,,,,,,,,,,,,,,,,,,,,,,,
SVK,Slovak Republic,,,,,,,,,,,,,,,,,,,,,,,,,,,,,,,,,,,,,,,,,,,,,,,,,,,,,,,,,,,,,
SVN,Slovenia,,,,,,,,,,,,,,,,,,,,,,,,,,,,,,,,,,,,,,,,,,,,,,,,,,,,,,,,,,,,,
SWE,Sweden,,,,,,,,,,,,,,,,,,,,,,,,,,,,,,,,,,,,,,,,,,,,,,,,,,,,,,,,,,,,,
SWZ,Eswatini,,0.0,-1197000.0,-591000.0,-779000.0,-912000.0,-1067000.0,-1149000.0,-1367000.0,-1527000.0,-1584000.0,-1386000.0,-1421000.0,-1645000.0,-1722000.0,-1232000.0,-435000.0,5204000.0,7387000.0,8590000.0,,,,32586000.0,,,,,,,-215000.0,-213000.0,-213000.0,-10978000.0,-2369000.0,-1528000.0,5246000.0,-4651000.0,-4796000.0,-4901000.0,-2503000.0,-1654000.0,27511000.0,-6000.0,-6000.0,-1091000.0,-2461000.0,-7316000.0,-2398000.0,-1708000.0,-931000.0,,,,,,,,,,
SXM,Sint Maarten (Dutch part),,,,,,,,,,,,,,,,,,,,,,,,,,,,,,,,,,,,,,,,,,,,,,,,,,,,,,,,,,,,,
SYC,Seychelles,,,,,,,,,,,,,,,,,,,,,,,,,,,,,,,,,,,,,,,,,,,,,,,,,,,,,,,,,,,,,
SYR,Syrian Arab Republic,,-612000.0,-1519000.0,-296000.0,-45000.0,0.0,0.0,0.0,0.0,-2332000.0,-2315000.0,-2437000.0,-2478000.0,,,,,,,,,,,,,,,,,,,,,,,,,,,,,,,,,,,,,,,,,,,,,,,,
TCA,Turks and Caicos Islands,,,,,,,,,,,,,,,,,,,,,,,,,,,,,,,,,,,,,,,,,,,,,,,,,,,,,,,,,,,,,
TCD,Chad,,,,,,,-3000.0,-1000.0,,,,,,,,,,,,,,,,,,,,,,,,,,,,,,,,,,504000.0,,,,,,,-141000.0,-133000.0,25000.0,,,,,,,,,,
TEA,East Asia & Pacific (IDA & IBRD countries),,,,,,,,,,,,,,,,,,,,,,,,,,,,,,,,,,,,,,,,,,,,,,,,,,,,,,,,,,,,,
TEC,Europe & Central Asia (IDA & IBRD countries),,,,,,,,,,,,,,,,,,,,,,,,,,,,,,,,,,,,,,,,,,,,,,,,,,,,,,,,,,,,,
TGO,Togo,,112469000.0,-7217000.0,-269000.0,-1021000.0,11590000.0,,,,,,,,,,,,,,,,,,-6065000.0,,,,,,,-120000.0,,-1844000.0,-3559000.0,-11382000.0,-9140000.0,-7259000.0,-1765000.0,-800000.0,-2728000.0,-2156000.0,31447000.0,21010000.0,18936000.0,11308000.0,-248000.0,-235000.0,1148000.0,,,,,,,,,,,,,
THA,Thailand,,,,,,-82623000.0,,-293571000.0,-116074000.0,-374218000.0,-80575000.0,555901000.0,-114857000.0,-308130000.0,209935000.0,127998000.0,-838637000.0,-969453000.0,-321967000.0,-1022327000.0,-621816000.0,-255960000.0,2666007000.0,169745000.0,525431000.0,653986000.0,-460670000.0,-1778000.0,194869000.0,230627000.0,-1213494000.0,-127473000.0,156339000.0,270158000.0,-67790000.0,682818000.0,-34383000.0,-55932000.0,208439000.0,269482000.0,554468000.0,464461000.0,185497000.0,23535000.0,98554000.0,-1491000.0,-1390000.0,-93000.0,4731000.0,-62000.0,-363000.0,,,,,,,,,,
TJK,Tajikistan,,0.0,-83000.0,-158000.0,-263000.0,2356000.0,9388000.0,36000.0,8546000.0,-331000.0,-318000.0,4011000.0,-353000.0,-329000.0,,184000.0,430000.0,-14027000.0,1181000.0,,,-4470000.0,-8050000.0,,,,,68000000.0,,,,,,,,,,,,,,,,,,,,,,,,,,,,,,,,,
TKM,Turkmenistan,,-24509000.0,269600000.0,,,,,,,,-3854000.0,-3854000.0,-3854000.0,-7239000.0,-7912000.0,-15710000.0,-17453000.0,-15843000.0,-21761000.0,-5931000.0,-6892000.0,-51518000.0,-27793000.0,128179000.0,25324000.0,,,,,,,,,,,,,,,,,,,,,,,,,,,,,,,,,,,,
TLA,Latin America & the Caribbean (IDA & IBRD countries),,,,,,,,,,,,,,,,,,,,,,,,,,,,,,,,,,,,,,,,,,,,,,,,,,,,,,,,,,,,,
TLS,Timor-Leste,,,,,,,,,,,,,,,,,,,,,,,,,,,,,,,,,,,,,,,,,,,,,,,,,,,,,,,,,,,,,
TMN,Middle East & North Africa (IDA & IBRD countries),,,,,,,,,,,,,,,,,,,,,,,,,,,,,,,,,,,,,,,,,,,,,,,,,,,,,,,,,,,,,
TON,Tonga,,,,,,-130000.0,-17000.0,-72000.0,,,248000.0,,,,,,,,,,,,,,,,,,,,,,,,,,,,,,,,,,,,,,,,,,,,,,,,,,
TSA,South Asia (IDA & IBRD),,,,,,,,,,,,,,,,,,,,,,,,,,,,,,,,,,,,,,,,,,,,,,,,,,,,,,,,,,,,,
TSS,Sub-Saharan Africa (IDA & IBRD countries),,,,,,,,,,,,,,,,,,,,,,,,,,,,,,,,,,,,,,,,,,,,,,,,,,,,,,,,,,,,,
TTO,Trinidad and Tobago,,,,,,,,,,,,,,,,,,,,,,,,,,,,,,,,,,,,,,,,,,,,,,,,,,,,,,,,,,,,,
TUN,Tunisia,,-71790000.0,-75291000.0,18077000.0,-81388000.0,226454000.0,194252000.0,6092000.0,-23290000.0,-22462000.0,-428099000.0,-931000.0,37309000.0,-4825000.0,4540000.0,-26417000.0,71034000.0,15432000.0,-37424000.0,-68431000.0,353782000.0,-118766000.0,-15620000.0,-15456000.0,358911000.0,-6241000.0,-83167000.0,-43093000.0,87212000.0,-63370000.0,-25529000.0,-83392000.0,-62203000.0,-93279000.0,95350000.0,104596000.0,-110099000.0,94096000.0,-84986000.0,-975000.0,26610000.0,56442000.0,210000000.0,199500000.0,,,,,,,,,,,,,,,,,
TUR,Turkey,,-780274000.0,948173000.0,-704243000.0,2193061000.0,-596963000.0,-700205000.0,-434157000.0,52846000.0,708461000.0,634256000.0,-1170775000.0,286183000.0,555450000.0,-120734000.0,-486046000.0,-99195000.0,-2090328000.0,25448000.0,-581744000.0,2651465000.0,1482645000.0,979044000.0,417131000.0,669854000.0,-326436000.0,-546161000.0,-493706000.0,-294285000.0,-731366000.0,222063000.0,337624000.0,1199402000.0,600811000.0,713553000.0,85156000.0,236440000.0,61413000.0,320897000.0,-19984000.0,445919000.0,2914305000.0,244485000.0,377448000.0,101595000.0,-2330000.0,-3545000.0,-7246000.0,-3354000.0,25804000.0,-1072000.0,,,,,,,,,,
TUV,Tuvalu,,,,,,,,,,,,,,,,,,,,,,,,,,,,,,,,,,,,,,,,,,,,,,,,,,,,,,,,,,,,,
TZA,Tanzania,,560605000.0,-421859000.0,296049000.0,-179682000.0,-37350000.0,-501000.0,788515000.0,195028000.0,296855000.0,130000.0,,,2297000.0,10973000.0,19084000.0,5142000.0,19682000.0,-1000000.0,-6405000.0,5354000.0,4250000.0,-1486000.0,-1424000.0,-1554000.0,5004000.0,1226000.0,2313000.0,-6974000.0,-2632000.0,4345000.0,7176000.0,8483000.0,-254000.0,-133000.0,-17000.0,-47000.0,2210000.0,13796000.0,11561000.0,8580000.0,11010000.0,12358000.0,147000.0,247000.0,,,,,,,,,,,,,,,,
UGA,Uganda,,34023000.0,43580000.0,7373000.0,558000.0,,,,,,-199000.0,-255000.0,-554000.0,-786000.0,-720000.0,-712000.0,-716000.0,-711000.0,-611000.0,3294000.0,-1297000.0,-1360000.0,-1061000.0,-1434000.0,-6028000.0,-6594000.0,-5750000.0,1678000.0,-3276000.0,-14186000.0,-9558000.0,24766000.0,17900000.0,5150000.0,-2137000.0,4767000.0,14675000.0,2256000.0,16484000.0,-16000.0,16503000.0,1037000.0,1368000.0,,-562000.0,-1473000.0,-2797000.0,-4076000.0,-858000.0,1258000.0,4582000.0,,,,,,,,,,
UKR,Ukraine,,962074000.0,623414000.0,-258000.0,-7270000.0,-7142000.0,-14284000.0,-14286000.0,-11737000.0,-232142000.0,-234890000.0,-255086000.0,-237529000.0,-240562000.0,-95345000.0,99565000.0,1179925000.0,-1124000.0,-922000.0,-13657000.0,11851000.0,-225429000.0,80750000.0,519957000.0,16538000.0,-2291000.0,-6156000.0,123092000.0,,,,,,,,,,,,,,,,,,,,,,,,,,,,,,,,,
UMC,Upper middle income,,-7678901000.0,-25652388000.0,13158970000.0,-12949769000.0,-31862778000.0,2641025000.0,69780909000.0,11491556000.0,27349087000.0,24114480000.0,-1844312000.0,12477116000.0,17869119000.0,14170678000.0,7423273000.0,-909365000.0,-7860783000.0,-4661842000.0,-5751947000.0,-1048953000.0,-10572673000.0,7791259000.0,5258321000.0,3849897000.0,5652204000.0,1433386000.0,2859378000.0,5266223000.0,-2774415000.0,-4103320000.0,-784326000.0,12402708000.0,10972180000.0,3609293000.0,7529045000.0,16825457000.0,13558349000.0,14749852000.0,15748440000.0,12998651000.0,18688341000.0,11035391000.0,8440821000.0,9482449000.0,7450248000.0,5120609000.0,3262249000.0,1930987000.0,834556000.0,541054000.0,,,,,,,,,,
URY,Uruguay,,,,,,,,,,,,,,,,,,,,,,,,,,,,,,,,,,,,,,,,,,,,,,,,,,,,,,,,,,,,,
USA,United States,,,,,,,,,,,,,,,,,,,,,,,,,,,,,,,,,,,,,,,,,,,,,,,,,,,,,,,,,,,,,
UZB,Uzbekistan,,36845000.0,-71246000.0,-22767000.0,29817000.0,100559000.0,100810000.0,-17058000.0,-13938000.0,55210000.0,-11628000.0,-39451000.0,-9906000.0,-31160000.0,-52120000.0,-15498000.0,-57113000.0,-68750000.0,8166000.0,-23070000.0,-6661000.0,80688000.0,49061000.0,174230000.0,96180000.0,,,,,,,,,,,,,,,,,,,,,,,,,,,,,,,,,,,,
VCT,St. Vincent and the Grenadines,,-1340000.0,-2587000.0,-3387000.0,-3387000.0,-6387000.0,-398000.0,-5443000.0,-9413000.0,-7913000.0,-7913000.0,-7913000.0,8887000.0,-6312000.0,-6433000.0,29760000.0,29695000.0,-360000.0,640000.0,-400000.0,-400000.0,-400000.0,-400000.0,-1560000.0,,51000.0,4749000.0,,,,,,,,,,,,,,,,,,,,,,,,,,,,,,,,,,
VEN,"Venezuela, RB",,0.0,0.0,-13000.0,-12000.0,115393000.0,28071000.0,31177000.0,44206000.0,-491807000.0,-150700000.0,-533635000.0,102652000.0,-3643279000.0,-1277119000.0,-2068063000.0,1652408000.0,937295000.0,524968000.0,153044000.0,1870626000.0,-612676000.0,-750016000.0,1965308000.0,1875957000.0,570905000.0,315169000.0,95982000.0,58961000.0,4623000.0,-679859000.0,54067000.0,-457358000.0,-598402000.0,-886155000.0,-398867000.0,-154172000.0,1326529000.0,563765000.0,887671000.0,1037718000.0,3105060000.0,1621374000.0,1507957000.0,896791000.0,-164609000.0,-173321000.0,21109000.0,180287000.0,168155000.0,134280000.0,,,,,,,,,,
VGB,British Virgin Islands,,,,,,,,,,,,,,,,,,,,,,,,,,,,,,,,,,,,,,,,,,,,,,,,,,,,,,,,,,,,,
VIR,Virgin Islands (U.S.),,,,,,,,,,,,,,,,,,,,,,,,,,,,,,,,,,,,,,,,,,,,,,,,,,,,,,,,,,,,,
VNM,Vietnam,,-660591000.0,-764047000.0,-736399000.0,-552060000.0,-194564000.0,1549681000.0,1124954000.0,851741000.0,457610000.0,685817000.0,513804000.0,549575000.0,388121000.0,29369000.0,-21011000.0,124592000.0,-170078000.0,-567260000.0,-560083000.0,-607320000.0,-812355000.0,-377927000.0,-126374000.0,200927000.0,388516000.0,93528000.0,,,,,-3257000.0,,,,,,,,,,,,,,,,,,,,,,,,,,,,,
VUT,Vanuatu,,,,,,,,,,,,,,,,,,,,,,,,,,,,,,,,,-112000.0,-109000.0,-97000.0,-84000.0,-85000.0,443000.0,,,,,,,,,,,,,,,,,,,,,,,
WLD,World,,,,,,,,,,,,,,,,,,,,,,,,,,,,,,,,,,,,,,,,,,,,,,,,,,,,,,,,,,,,,
WSM,Samoa,,,,,,,,,,,,,,,,,,,,,,,,,,,,,,,,,,,,-7000.0,-17000.0,-1271000.0,-271000.0,-274000.0,-600000.0,-485000.0,1514000.0,-343000.0,1343000.0,152000.0,184000.0,170000.0,,,,,,,,,,,,,
XKX,Kosovo,,8105000.0,0.0,618000.0,3912000.0,1064000.0,2658000.0,,,,,,,,,,,,,,,,,,,,,,,,,,,,,,,,,,,,,,,,,,,,,,,,,,,,,,
YEM,"Yemen, Rep.",,,,,,,-575000.0,-908000.0,-933000.0,-1010000.0,-971000.0,-1020000.0,-1077000.0,-1003000.0,-375000.0,-69000.0,0.0,0.0,0.0,-541000.0,-263000.0,5052000.0,1762000.0,,,,,,,,,-22492000.0,57159000.0,-24667000.0,70000000.0,,,,,,,,,,,,,,,,,,,,,,,,,,
ZAF,South Africa,,6298663000.0,1783514000.0,1315727000.0,2082058000.0,220728000.0,1467870000.0,1158100000.0,1713935000.0,1341104000.0,318640000.0,-1348986000.0,33969000.0,-79334000.0,-971313000.0,1047780000.0,593969000.0,-285559000.0,98429000.0,-695501000.0,-395570000.0,-106612000.0,-356499000.0,-26109000.0,-415288000.0,110840000.0,154398000.0,,,,,,,,,,,,,,,,,,,,,,,,,,,,,,,,,,
ZMB,Zambia,,141501000.0,663529000.0,1220969000.0,31258000.0,15247000.0,,250000000.0,,,,,,,-1824000.0,-8372000.0,,-6214000.0,16410000.0,-332000.0,-274000.0,-3139000.0,-2726000.0,2113000.0,-1609000.0,3660000.0,68000.0,,,3000000.0,-18000.0,-16000.0,-16000.0,-2000.0,,,-4338000.0,-1663000.0,15768000.0,-4268000.0,5422000.0,60275000.0,2740000.0,6588000.0,1227000.0,,,,,,,,,,,,,,,,
ZWE,Zimbabwe,,0.0,0.0,0.0,0.0,3949000.0,1277000.0,-2804000.0,0.0,2793000.0,523000.0,0.0,0.0,0.0,118000.0,3535000.0,3174000.0,2590000.0,612000.0,6245000.0,4352000.0,39900000.0,40114000.0,5995000.0,25675000.0,42228000.0,-1896000.0,-62257000.0,54954000.0,-23836000.0,-17251000.0,70224000.0,-9225000.0,-64928000.0,-85678000.0,-76521000.0,-77405000.0,17711000.0,218226000.0,215815000.0,2575000.0,,,,,,,,,,,,,,,,,,,,
