economy,Country Name,YR2020,YR2019,YR2018,YR2017,YR2016,YR2015,YR2014,YR2013,YR2012,YR2011,YR2010,YR2009,YR2008,YR2007,YR2006,YR2005,YR2004,YR2003,YR2002,YR2001,YR2000,YR1999,YR1998,YR1997,YR1996,YR1995,YR1994,YR1993,YR1992,YR1991,YR1990,YR1989,YR1988,YR1987,YR1986,YR1985,YR1984,YR1983,YR1982,YR1981,YR1980,YR1979,YR1978,YR1977,YR1976,YR1975,YR1974,YR1973,YR1972,YR1971,YR1970,YR1969,YR1968,YR1967,YR1966,YR1965,YR1964,YR1963,YR1962,YR1961,YR1960
ABW,Aruba,,,,,,,,,,,,,,,,,,,,,,,,,,,,,,,,,,,,,,,,,,,,,,,,,,,,,,,,,,,,,
AFE,Africa Eastern and Southern,,,,,,,,,,,,,,,,,,,,,,,,,,,,,,,,,,,,,,,,,,,,,,,,,,,,,,,,,,,,,
AFG,Afghanistan,,338272000.0,347934000.0,364172000.0,351221000.0,369722000.0,394587000.0,425760000.0,422308000.0,412513000.0,405910000.0,465822000.0,437607000.0,399183000.0,343427000.0,,,,,,,,,,,,,,,,,,,,,,,,,,,,,,,,,,,,,,,,,,,,,,
AFW,Africa Western and Central,,,,,,,,,,,,,,,,,,,,,,,,,,,,,,,,,,,,,,,,,,,,,,,,,,,,,,,,,,,,,
AGO,Angola,,526778000.0,545941000.0,560256000.0,490247000.0,479183000.0,477956000.0,468408000.0,420275000.0,383663000.0,377702000.0,385211000.0,368888000.0,365087000.0,347333000.0,319346000.0,318373000.0,291456000.0,264763000.0,228393000.0,226426000.0,213777000.0,178689000.0,136047000.0,115121000.0,80576000.0,49604000.0,15202000.0,5607000.0,0.0,,,,,,,,,,,,,,,,,,,,,,,,,,,,,,,
ALB,Albania,,597396000.0,647288000.0,704946000.0,701024000.0,754393000.0,813581000.0,871029000.0,874009000.0,858818000.0,849743000.0,849414000.0,817396000.0,803139000.0,728673000.0,655409000.0,676602000.0,583261000.0,475754000.0,366122000.0,345747000.0,296335000.0,220080000.0,148150000.0,137216000.0,108992000.0,64738000.0,27637000.0,2037000.0,,,,,,,,,,,,,,,,,,,,,,,,,,,,,,,,
AND,Andorra,,,,,,,,,,,,,,,,,,,,,,,,,,,,,,,,,,,,,,,,,,,,,,,,,,,,,,,,,,,,,
ARB,Arab World,,,,,,,,,,,,,,,,,,,,,,,,,,,,,,,,,,,,,,,,,,,,,,,,,,,,,,,,,,,,,
ARE,United Arab Emirates,,,,,,,,,,,,,,,,,,,,,,,,,,,,,,,,,,,,,,,,,,,,,,,,,,,,,,,,,,,,,
ARG,Argentina,,,,,,,,,,,,,,,,,,,,,,,,,,,,,,,,,,,,,,,,,,,,,,,,,,,,,,,,,,,,,
ARM,Armenia,,1013365000.0,1072825000.0,1133438000.0,1099075000.0,1140648000.0,1198542000.0,1275021000.0,1235456000.0,1187268000.0,1160720000.0,1160829000.0,1025362000.0,964653000.0,841246000.0,746036000.0,772576000.0,661599000.0,529940000.0,427876000.0,388291000.0,352099000.0,292840000.0,240254000.0,174048000.0,90938000.0,5563000.0,,,,,,,,,,,,,,,,,,,,,,,,,,,,,,,,,,
ASM,American Samoa,,,,,,,,,,,,,,,,,,,,,,,,,,,,,,,,,,,,,,,,,,,,,,,,,,,,,,,,,,,,,
ATG,Antigua and Barbuda,,,,,,,,,,,,,,,,,,,,,,,,,,,,,,,,,,,,,,,,,,,,,,,,,,,,,,,,,,,,,
AUS,Australia,,,,,,,,,,,,,,,,,,,,,,,,,,,,,,,,,,,,,,,,,,,,,,,,,,,,,,,,,,,,,
AUT,Austria,,,,,,,,,,,,,,,,,,,,,,,,,,,,,,,,,,,,,,,,,,,,,,,,,,,,,,,,,,,,,
AZE,Azerbaijan,,381211000.0,444266000.0,504000000.0,466800000.0,517748000.0,571477000.0,599162000.0,833304000.0,805789000.0,762757000.0,739338000.0,697699000.0,660429000.0,582706000.0,500610000.0,492898000.0,421867000.0,313665000.0,235023000.0,216182000.0,199287000.0,141309000.0,115525000.0,64289000.0,30194000.0,,,,,,,,,,,,,,,,,,,,,,,,,,,,,,,,,,,
BDI,Burundi,,137531000.0,141532000.0,148210000.0,143008000.0,150608000.0,160731000.0,173444000.0,174892000.0,170187000.0,162687000.0,147247000.0,818524000.0,830118000.0,796977000.0,750805000.0,792785000.0,731741000.0,647713000.0,582342000.0,600469000.0,599105000.0,603432000.0,566498000.0,587717000.0,591412000.0,555596000.0,508720000.0,472858000.0,439691038.6,397963602.9,328001602.3,287484830.9,251837938.3,191032672.0,139703375.0,116797601.6,92308892.5,65457413.7,47353000.0,37007000.0,25397000.0,14056000.0,7137000.0,4585000.0,3595000.0,3316000.0,2735000.0,2294000.0,1650000.0,1145000.0,,,,,,,,,,
BEL,Belgium,,,,,,,,,,,,,,,,,,,,,,,,,,,,,,,,,,,,,,,,,,,,,,,,,,,,,,,,,,,,,
BEN,Benin,,1081787000.0,983851000.0,914161000.0,764505000.0,680457000.0,621713000.0,557308000.0,435370000.0,401777000.0,382606000.0,309173000.0,255435000.0,175648000.0,126088000.0,770800000.0,791436000.0,729466000.0,654006000.0,597575000.0,578385000.0,574392000.0,542785000.0,509767000.0,519941000.0,498253000.0,463769000.0,417889000.0,388742000.0,369778266.1,326047405.9,253380457.9,209028999.0,195574862.0,158222132.0,124460743.3,100245498.0,88556037.0,72771090.6,61954000.0,52030000.0,39797000.0,34331000.0,31934000.0,24900000.0,18971000.0,14960000.0,10812000.0,4974000.0,2563000.0,377000.0,,,,,,,,,,
BFA,Burkina Faso,,1672631000.0,1458450000.0,1334317000.0,1171415000.0,1038398000.0,948771000.0,923745000.0,897603000.0,836686000.0,776236000.0,720942000.0,625613000.0,468397000.0,371018000.0,1042588000.0,1027350000.0,861418000.0,744569000.0,635748000.0,592500000.0,753328000.0,709595000.0,635581000.0,635944000.0,607870000.0,518198000.0,425425000.0,363989000.0,325760861.1,282277090.3,255280397.5,233797641.2,221138097.1,185990109.6,148661939.6,124247321.6,112645557.0,94678294.1,84226396.0,77169000.0,65402000.0,46542000.0,31021000.0,17052000.0,10498000.0,5541000.0,3245000.0,1593000.0,15000.0,11000.0,,,,,,,,,,
BGD,Bangladesh,,15788308000.0,14501231000.0,13620791000.0,11890490000.0,11533583000.0,11417309000.0,11582988000.0,11159220000.0,10712228000.0,10653176000.0,10746036000.0,10612974000.0,10077298000.0,9297235000.0,8687879000.0,8894550000.0,8061818000.0,7062849000.0,6439008000.0,6431291000.0,6427941000.0,6167831000.0,5701127000.0,5712872000.0,5637768000.0,5378211000.0,4823657000.0,4534259000.0,4359848631.2,4094834272.7,3441076425.8,3187857577.7,2985180063.9,2449605738.4,2020939338.3,1677418334.3,1458754327.6,1270015733.8,1084809909.3,926003000.0,770294000.0,607722000.0,504629000.0,416423000.0,294774000.0,203980000.0,91221000.0,3039000.0,,,,,,,,,,,,
BGR,Bulgaria,,,,,,,,,,,,,,,,,,,,,,,,,,,,,,,,,,,,,,,,,,,,,,,,,,,,,,,,,,,,,
BHR,Bahrain,,,,,,,,,,,,,,,,,,,,,,,,,,,,,,,,,,,,,,,,,,,,,,,,,,,,,,,,,,,,,
BHS,Bahamas,,,,,,,,,,,,,,,,,,,,,,,,,,,,,,,,,,,,,,,,,,,,,,,,,,,,,,,,,,,,,
BIH,Bosnia and Herzegovina,,1008940000.0,1050177000.0,1104506000.0,1058833000.0,1075251000.0,1120341000.0,1192453000.0,1192682000.0,1192820000.0,1180496000.0,1102435000.0,1077370000.0,1067699000.0,983232000.0,921431000.0,926952000.0,683345000.0,577534000.0,442834000.0,397587000.0,372762000.0,311782000.0,167067000.0,108844000.0,,,,,,,,,,,,,,,,,,,,,,,,,,,,,,,,,,,,
BLR,Belarus,,,,,,,,,,,,,,,,,,,,,,,,,,,,,,,,,,,,,,,,,,,,,,,,,,,,,,,,,,,,,
BLZ,Belize,,,,,,,,,,,,,,,,,,,,,,,,,,,,,,,,,,,,,,,,,,,,,,,,,,,,,,,,,,,,,
BMU,Bermuda,,,,,,,,,,,,,,,,,,,,,,,,,,,,,,,,,,,,,,,,,,,,,,,,,,,,,,,,,,,,,
BOL,Bolivia,,749673000.0,729301000.0,728697000.0,669958000.0,634563000.0,498602000.0,498479000.0,442857000.0,394987000.0,354972000.0,316278000.0,281456000.0,259097000.0,233187000.0,1672795000.0,1749718000.0,1570921000.0,1320527000.0,1145786000.0,1096149000.0,1097426000.0,1044946000.0,930067000.0,842698000.0,770294000.0,647822000.0,546737000.0,464066000.0,443236427.2,393278831.6,324944499.5,249284643.0,141045613.2,97392628.0,94422000.0,93723000.0,92431000.0,89683000.0,78327000.0,63810000.0,62340000.0,59074000.0,57094000.0,53417000.0,49494000.0,40884000.0,30333000.0,25597000.0,21601000.0,17814000.0,,,,,,,,,,
BRA,Brazil,,,,,,,,,,,,,,,,,,,,,,,,,,,,,,,,,,,,,,,,,,,,,,,,,,,,,,,,,,,,,
BRB,Barbados,,,,,,,,,,,,,,,,,,,,,,,,,,,,,,,,,,,,,,,,,,,,,,,,,,,,,,,,,,,,,
BRN,Brunei Darussalam,,,,,,,,,,,,,,,,,,,,,,,,,,,,,,,,,,,,,,,,,,,,,,,,,,,,,,,,,,,,,
BTN,Bhutan,,270948000.0,243688000.0,218982000.0,177604000.0,183425000.0,170331000.0,176518000.0,174551000.0,138073000.0,112347000.0,113937000.0,94252000.0,87467000.0,76041000.0,63265000.0,60263000.0,49186000.0,38549000.0,30746000.0,26139000.0,24057000.0,23862000.0,22495000.0,22841000.0,22451000.0,20851000.0,18630000.0,17658000.0,17750206.5,16117315.1,12961560.0,10199060.3,8500610.7,2299616.0,549210.0,19604.2,,,,,,,,,,,,,,,,,,,,,,,,
BWA,Botswana,,737000.0,1056000.0,1449000.0,1750000.0,2097000.0,2444000.0,2921000.0,3399000.0,3877000.0,4354000.0,4831000.0,5310000.0,5786000.0,6263000.0,6742000.0,7219000.0,7696000.0,8173000.0,8651000.0,9128000.0,9604000.0,10083000.0,10560000.0,11037000.0,11515000.0,11993000.0,12440000.0,12858000.0,13260000.0,13604000.0,13889000.0,14154000.0,14400000.0,14646000.0,14892000.0,15138000.0,15281000.0,15410000.0,15532000.0,15626000.0,15661000.0,15491000.0,14936000.0,13957000.0,12432000.0,11263000.0,9048000.0,6450000.0,6020000.0,5207000.0,,,,,,,,,,
CAF,Central African Republic,,106956000.0,98511000.0,64243000.0,59850000.0,58642000.0,53126000.0,23130000.0,23158000.0,18953000.0,13922000.0,9020000.0,389908000.0,402820000.0,395061000.0,422698000.0,454617000.0,435429000.0,399432000.0,371667000.0,391288000.0,403286000.0,413273000.0,403032000.0,421988000.0,414046000.0,377183000.0,323219000.0,299538000.0,290255379.7,265086195.5,179465717.8,160260410.9,125916585.9,86219287.2,62675890.7,49090050.6,38218698.9,34907951.0,33107431.6,28804000.0,18617000.0,11496000.0,10884000.0,9922000.0,9703000.0,9062000.0,8091000.0,6053000.0,2387000.0,220000.0,,,,,,,,,,
CAN,Canada,,,,,,,,,,,,,,,,,,,,,,,,,,,,,,,,,,,,,,,,,,,,,,,,,,,,,,,,,,,,,
CEB,Central Europe and the Baltics,,,,,,,,,,,,,,,,,,,,,,,,,,,,,,,,,,,,,,,,,,,,,,,,,,,,,,,,,,,,,
CHE,Switzerland,,,,,,,,,,,,,,,,,,,,,,,,,,,,,,,,,,,,,,,,,,,,,,,,,,,,,,,,,,,,,
CHI,Channel Islands,,,,,,,,,,,,,,,,,,,,,,,,,,,,,,,,,,,,,,,,,,,,,,,,,,,,,,,,,,,,,
CHL,Chile,,,,,,,,,,,,,,,,,,,,,,,,,,,,,,,,,,,,,,,,,,,,,,,,,,,,,,,,,,,,,
CHN,China,,1203417000.0,1723689000.0,2449267000.0,3069185000.0,3978170000.0,4986603000.0,6134055000.0,6911210000.0,7646350000.0,9173757000.0,9704875000.0,9975561000.0,10348344000.0,10191834000.0,9932167000.0,10883251000.0,10522043000.0,9630333000.0,8861373000.0,8978800000.0,9114949000.0,8900878000.0,8038086000.0,7798767000.0,7263492000.0,6307740000.0,5325371000.0,4397386000.0,3671619756.2,3015847314.6,2295590305.0,1819175125.1,1329861814.6,773791427.2,431437407.6,180718377.1,66839381.9,882488.0,0.0,,,,,,,,,,,,,,,,,,,,,
CIV,Cote d'Ivoire,,1174245000.0,865360000.0,780587000.0,521828000.0,394318000.0,239934000.0,168459000.0,118223000.0,1712912000.0,1749019000.0,1781291000.0,1796665000.0,1909044000.0,1847230000.0,1762560000.0,1903831000.0,1786343000.0,1588873000.0,1318095000.0,1365630000.0,1359736000.0,1337227000.0,1100326000.0,1018613000.0,812841000.0,575505000.0,112735000.0,109594000.0,37913345.2,6938000.0,7013000.0,7088000.0,7163000.0,7238000.0,7313000.0,7388000.0,7463000.0,7500000.0,7500000.0,7500000.0,7500000.0,7500000.0,6724000.0,2957000.0,1333000.0,221000.0,0.0,,,,,,,,,,,,,
CMR,Cameroon,,1480985000.0,1180642000.0,1081876000.0,896504000.0,798099000.0,740243000.0,659207000.0,498453000.0,412336000.0,349898000.0,273248000.0,224868000.0,198075000.0,170437000.0,1031736000.0,1082980000.0,944256000.0,846843000.0,757574000.0,768684000.0,749338000.0,700868000.0,609279000.0,512574000.0,442755000.0,405844000.0,226601000.0,231692000.0,234518756.2,238081896.8,238796291.3,240040105.7,238708840.1,231126103.2,226531280.6,222163391.2,216123751.5,204484901.7,172618000.0,145789000.0,127128000.0,107578000.0,88443000.0,67791000.0,49897000.0,34132000.0,30112000.0,18358000.0,10965000.0,8890000.0,,,,,,,,,,
COD,"Congo, Dem. Rep.",,1287657000.0,1098301000.0,942442000.0,826549000.0,841085000.0,887650000.0,966023000.0,961641000.0,887445000.0,848548000.0,2496754000.0,2436813000.0,2402465000.0,2251267000.0,2050461000.0,1993262000.0,1771058000.0,1503659000.0,1151224000.0,1187976000.0,1235149000.0,1261222000.0,1224897000.0,1283794000.0,1321016000.0,1293563000.0,1242521000.0,1193541000.0,1182622192.1,1112467593.7,961690236.5,836585338.8,738423450.8,471137143.2,371503683.6,301661831.4,255263610.5,214110545.0,176215980.0,159071000.0,139480000.0,113199000.0,87013000.0,54615000.0,37785000.0,26321000.0,16271000.0,8397000.0,2849000.0,748000.0,,,,,,,,,,
COG,"Congo, Rep.",,196725000.0,166922000.0,143658000.0,117745000.0,109683000.0,103992000.0,100744000.0,90777000.0,86204000.0,84203000.0,298479000.0,298813000.0,302966000.0,295138000.0,280214000.0,268969000.0,235133000.0,197814000.0,186880000.0,158975000.0,165720000.0,168403000.0,164594000.0,170851000.0,174303000.0,172383000.0,74122000.0,74033000.0,74858780.4,74930038.0,73785488.0,73855982.1,73907953.2,70291092.8,66689059.8,62068673.9,58176741.2,49352569.2,36918000.0,21960000.0,20882000.0,20196000.0,18879000.0,17355000.0,13716000.0,9730000.0,5442000.0,2607000.0,0.0,0.0,,,,,,,,,,
COL,Colombia,,,,,,,,,,0.0,353000.0,1060000.0,1766000.0,2472000.0,3179000.0,3885000.0,4591000.0,5298000.0,6004000.0,6710000.0,7417000.0,8123000.0,8829000.0,9536000.0,10242000.0,10948000.0,11655000.0,12361000.0,13068000.0,13774000.0,14480000.0,15187000.0,15893000.0,16599000.0,17306000.0,18365000.0,18718000.0,19425000.0,20131000.0,20837000.0,21308000.0,21544000.0,21779000.0,22015000.0,22250000.0,22486000.0,22839000.0,22957000.0,20883000.0,19402000.0,19500000.0,,,,,,,,,,
COM,Comoros,,12320000.0,12709000.0,13328000.0,12856000.0,13535000.0,14448000.0,15534000.0,90293000.0,111995000.0,115505000.0,120371000.0,122332000.0,124350000.0,117087000.0,111076000.0,118720000.0,112373000.0,96078000.0,79008000.0,70841000.0,72718000.0,74763000.0,69551000.0,68151000.0,64053000.0,53857000.0,44788000.0,40077000.0,38977661.8,37510870.9,34757611.1,33878421.3,33116566.8,25633826.4,19486682.3,12887264.5,9436966.5,7472926.7,5619000.0,4220000.0,2463000.0,0.0,,,,,,,,,,,,,,,,,,
CPV,Cabo Verde,,366347000.0,309025000.0,316135000.0,303528000.0,316614000.0,318930000.0,317596000.0,312605000.0,300298000.0,303137000.0,286417000.0,283831000.0,267411000.0,235929000.0,205089000.0,194642000.0,173254000.0,140419000.0,109649000.0,97881000.0,92496000.0,70204000.0,45089000.0,39258000.0,33022000.0,26563000.0,20572000.0,17086000.0,16567240.9,13636196.2,10665722.5,7285619.8,6257709.3,4578437.6,2993194.5,1205658.3,209390.0,,,,,,,,,,,,,,,,,,,,,,,
CRI,Costa Rica,,,,,,,,,,0.0,82000.0,247000.0,412000.0,577000.0,742000.0,906000.0,1071000.0,1236000.0,1401000.0,1566000.0,1731000.0,1895000.0,2060000.0,2225000.0,2390000.0,2555000.0,2719000.0,2884000.0,3049000.0,3214000.0,3461000.0,3626000.0,3791000.0,3956000.0,4038000.0,4203000.0,4368000.0,4532000.0,4780000.0,4862000.0,4972000.0,5027000.0,5082000.0,5137000.0,5192000.0,5247000.0,5302000.0,5356000.0,4868000.0,4527000.0,4550000.0,,,,,,,,,,
CSS,Caribbean small states,,,,,,,,,,,,,,,,,,,,,,,,,,,,,,,,,,,,,,,,,,,,,,,,,,,,,,,,,,,,,
CUB,Cuba,,,,,,,,,,,,,,,,,,,,,,,,,,,,,,,,,,,,,,,,,,,,,,,,,,,,,,,,,,,,,
CUW,Curacao,,,,,,,,,,,,,,,,,,,,,,,,,,,,,,,,,,,,,,,,,,,,,,,,,,,,,,,,,,,,,
CYM,Cayman Islands,,,,,,,,,,,,,,,,,,,,,,,,,,,,,,,,,,,,,,,,,,,,,,,,,,,,,,,,,,,,,
CYP,Cyprus,,,,,,,,,,,,,,,,,,,,,,,,,,,,,,,,,,,,,,,,,,,,,,,,,,,,,,,,,,,,,
CZE,Czech Republic,,,,,,,,,,,,,,,,,,,,,,,,,,,,,,,,,,,,,,,,,,,,,,,,,,,,,,,,,,,,,
DEU,Germany,,,,,,,,,,,,,,,,,,,,,,,,,,,,,,,,,,,,,,,,,,,,,,,,,,,,,,,,,,,,,
DJI,Djibouti,,161260000.0,152157000.0,143620000.0,127926000.0,129902000.0,136579000.0,147638000.0,150774000.0,152616000.0,154716000.0,158376000.0,151600000.0,147161000.0,133347000.0,120303000.0,126386000.0,112140000.0,78479000.0,56123000.0,49901000.0,49017000.0,49465000.0,46059000.0,45686000.0,46242000.0,42766000.0,39609000.0,36047000.0,34291699.7,31116419.5,26347593.9,25017908.7,20747902.4,11425911.2,6829975.6,1246827.2,523475.0,0.0,,,,,,,,,,,,,,,,,,,,,,
DMA,Dominica,,35556000.0,34045000.0,32802000.0,24021000.0,25485000.0,26263000.0,27880000.0,27038000.0,27155000.0,26977000.0,27510000.0,26479000.0,25439000.0,22492000.0,21722000.0,23235000.0,18223000.0,16608000.0,13826000.0,13584000.0,14475000.0,14317424.5,12305000.0,11692000.0,12170000.0,11837000.0,11061000.0,10992000.0,11062946.0,10361232.8,8728650.8,7191420.8,7198280.8,5209608.8,4591395.6,3148434.5,1193523.0,0.0,,,,,,,,,,,,,,,,,,,,,,
DNK,Denmark,,,,,,,,,,,,,,,,,,,,,,,,,,,,,,,,,,,,,,,,,,,,,,,,,,,,,,,,,,,,,
DOM,Dominican Republic,,1442000.0,2105000.0,2767000.0,3429000.0,4092000.0,4755000.0,5417000.0,6080000.0,6742000.0,7404000.0,8067000.0,8729000.0,9392000.0,10054000.0,10716000.0,11380000.0,12042000.0,12704000.0,13367000.0,14029000.0,14691000.0,15354000.0,16016000.0,16678000.0,17341000.0,18004000.0,18666000.0,19329000.0,19731000.0,20243000.0,20444000.0,20665000.0,20886000.0,21017000.0,21302000.0,21478000.0,21679000.0,21900000.0,21990000.0,17706000.0,17399000.0,17032000.0,11230000.0,10620000.0,7648000.0,5086000.0,2187000.0,285000.0,0.0,,,,,,,,,,,
DZA,Algeria,,,,,,,,,,,,,,,,,,,,,,,,,,,,,,,,,,,,,,,,,,,,,,,,,,,,,,,,,,,,,
EAP,East Asia & Pacific (excluding high income),,19408435000.0,19533879000.0,20020024000.0,18840762000.0,19640381000.0,20587354000.0,21529120000.0,21183039000.0,20789428000.0,21440096000.0,21139128000.0,19908632000.0,19320523000.0,17917087000.0,16730789000.0,17611011000.0,16381142000.0,14370160000.0,12962937000.0,12783803119.0,12775309000.0,12393271000.0,11169649000.0,10741095000.0,9972644000.0,8948511000.0,7698796000.0,6745313000.0,5865521744.2,5151808481.0,4313329282.1,3755189456.3,3211628838.1,2540847854.4,2077418487.7,1706443504.2,1425978337.8,1190916135.4,1011803000.0,847505000.0,757646000.0,676105000.0,611291000.0,521581000.0,383528000.0,241100000.0,147402000.0,76853000.0,36835000.0,6088000.0,,,,,,,,,,
EAR,Early-demographic dividend,,,,,,,,,,,,,,,,,,,,,,,,,,,,,,,,,,,,,,,,,,,,,,,,,,,,,,,,,,,,,
EAS,East Asia & Pacific,,,,,,,,,,,,,,,,,,,,,,,,,,,,,,,,,,,,,,,,,,,,,,,,,,,,,,,,,,,,,
ECA,Europe & Central Asia (excluding high income),,7562735000.0,7812338000.0,7594357000.0,7286933000.0,7540382000.0,7886569000.0,8302202000.0,8361913000.0,8066461000.0,7835262000.0,7630574000.0,7159516000.0,6861515000.0,6188048000.0,5548340000.0,5555212000.0,4589112000.0,3730278000.0,2890582000.0,2667100000.0,2441131000.0,1990949000.0,1482773000.0,1117401000.0,669142000.0,309560000.0,192056000.0,149738000.0,152970000.0,157393000.0,161575000.0,166191000.0,169903000.0,173558000.0,177457000.0,180997000.0,183950000.0,186547000.0,188203000.0,189432000.0,190294000.0,188465000.0,181035000.0,163333000.0,143521000.0,126789000.0,113463000.0,99384000.0,87919000.0,82997000.0,,,,,,,,,,
ECS,Europe & Central Asia,,,,,,,,,,,,,,,,,,,,,,,,,,,,,,,,,,,,,,,,,,,,,,,,,,,,,,,,,,,,,
ECU,Ecuador,,1184000.0,1881000.0,2659000.0,3512000.0,4366000.0,5220000.0,6209000.0,7336000.0,8462000.0,9586000.0,10715000.0,11840000.0,12965000.0,14092000.0,15216000.0,16344000.0,17469000.0,18594000.0,19722000.0,20847000.0,21974000.0,23099000.0,24225000.0,25351000.0,26477000.0,27601000.0,28729000.0,29811000.0,30849000.0,31748000.0,32444000.0,33104000.0,33711000.0,34269000.0,34826000.0,35382000.0,35847000.0,36202000.0,36532000.0,36329000.0,36490000.0,36431000.0,35730000.0,30988000.0,28405000.0,21317000.0,17630000.0,11799000.0,7865000.0,5841000.0,,,,,,,,,,
EGY,"Egypt, Arab Rep.",,472348000.0,597049000.0,725254000.0,803954000.0,924257000.0,1044373000.0,1170486000.0,1229747000.0,1282363000.0,1338438000.0,1400495000.0,1444168000.0,1490401000.0,1480739000.0,1420252000.0,1465315000.0,1386276000.0,1316192000.0,1242271000.0,1265991000.0,1273309000.0,1267769000.0,1205698000.0,1089574000.0,1035321000.0,960982000.0,912358000.0,903728000.0,914769636.2,920777214.7,904564229.5,900251234.0,891742259.0,846085232.8,801604484.5,743676863.9,649012079.9,508580482.4,392549356.0,307349000.0,266294000.0,212497000.0,167945000.0,125895000.0,84132000.0,35853000.0,24570000.0,1157000.0,171000.0,0.0,,,,,,,,,,
EMU,Euro area,,,,,,,,,,,,,,,,,,,,,,,,,,,,,,,,,,,,,,,,,,,,,,,,,,,,,,,,,,,,,
ERI,Eritrea,,431983000.0,434471000.0,444886000.0,419958000.0,432889000.0,452594000.0,481084000.0,480120000.0,478471000.0,467917000.0,476849000.0,472619000.0,456914000.0,419375000.0,381054000.0,352030000.0,301398000.0,218554000.0,158275000.0,84484000.0,55779000.0,36943000.0,28754000.0,26548000.0,24312000.0,18561000.0,,,,,,,,,,,,,,,,,,,,,,,,,,,,,,,,,,
ESP,Spain,,,,,,,,,,,,,,,,,,,,,,,,,,,,,,,,,,,,,,,,,,,,,,,,,,,,,,,,,,,,,
EST,Estonia,,,,,,,,,,,,,,,,,,,,,,,,,,,,,,,,,,,,,,,,,,,,,,,,,,,,,,,,,,,,,
ETH,Ethiopia,,9354350000.0,8338207000.0,7039925000.0,5746393000.0,4753164000.0,4258610000.0,3658035000.0,2801037000.0,2207661000.0,1803676000.0,1421652000.0,859135000.0,710571000.0,552614000.0,3358909000.0,3488363000.0,3179154000.0,2755978000.0,2150493000.0,1779264000.0,1739398000.0,1631967000.0,1531768000.0,1554660000.0,1469574000.0,1372744000.0,1186829000.0,963613000.0,882702770.7,823886439.3,717817712.3,658102600.6,600964314.7,485717550.4,436487042.9,378523849.8,342210108.0,302223806.5,275508000.0,248526000.0,220765000.0,174073000.0,142061000.0,109073000.0,73357000.0,54744000.0,45493000.0,33204000.0,26401000.0,22732000.0,,,,,,,,,,
EUU,European Union,,,,,,,,,,,,,,,,,,,,,,,,,,,,,,,,,,,,,,,,,,,,,,,,,,,,,,,,,,,,,
FCS,Fragile and conflict affected situations,,,,,,,,,,,,,,,,,,,,,,,,,,,,,,,,,,,,,,,,,,,,,,,,,,,,,,,,,,,,,
FIN,Finland,,,,,,,,,,,,,,,,,,,,,,,,,,,,,,,,,,,,,,,,,,,,,,,,,,,,,,,,,,,,,
FJI,Fiji,,,,,,,,,,,,,,,,,,,,,,,,,,,,,,,,,,,,,,,,,,,,,,,,,,,,,,,,,,,,,
FRA,France,,,,,,,,,,,,,,,,,,,,,,,,,,,,,,,,,,,,,,,,,,,,,,,,,,,,,,,,,,,,,
FRO,Faroe Islands,,,,,,,,,,,,,,,,,,,,,,,,,,,,,,,,,,,,,,,,,,,,,,,,,,,,,,,,,,,,,
FSM,"Micronesia, Fed. Sts.",,,,,,,,,,,,,,,,,,,,,,,,,,,,,,,,,,,,,,,,,,,,,,,,,,,,,,,,,,,,,
GAB,Gabon,,,,,,,,,,,,,,,,,,,,,,,,,,,,,,,,,,,,,,,,,,,,,,,,,,,,,,,,,,,,,
GBR,United Kingdom,,,,,,,,,,,,,,,,,,,,,,,,,,,,,,,,,,,,,,,,,,,,,,,,,,,,,,,,,,,,,
GEO,Georgia,,968712000.0,1070173000.0,1167422000.0,1148876000.0,1215450000.0,1288077000.0,1348779000.0,1294598000.0,1218584000.0,1185917000.0,1153419000.0,989467000.0,884891000.0,784859000.0,678877000.0,677610000.0,583119000.0,490549000.0,396210000.0,346885000.0,346168000.0,273542000.0,211643000.0,157149000.0,84219000.0,960000.0,,,,,,,,,,,,,,,,,,,,,,,,,,,,,,,,,,
GHA,Ghana,,3989482000.0,3925733000.0,3944951000.0,3414976000.0,3284863000.0,2946418000.0,2832215000.0,2523402000.0,2267331000.0,1868390000.0,1581025000.0,1329664000.0,1086767000.0,815204000.0,4233520000.0,4309295000.0,3949865000.0,3470835000.0,3172174000.0,3130098000.0,3099287000.0,2962409000.0,2617187000.0,2529833000.0,2374753000.0,2094208000.0,1837697000.0,1630878000.0,1521623769.3,1309551099.2,1029984953.8,875801113.6,699700358.0,445983716.0,258975005.5,187699285.2,140940302.5,124665000.0,110574000.0,99099000.0,94466000.0,90515000.0,79178000.0,56251000.0,43516000.0,33562000.0,26314000.0,21718000.0,14020000.0,10602000.0,,,,,,,,,,
GIB,Gibraltar,,,,,,,,,,,,,,,,,,,,,,,,,,,,,,,,,,,,,,,,,,,,,,,,,,,,,,,,,,,,,
GIN,Guinea,,471165000.0,343895000.0,252496000.0,221594000.0,186017000.0,196542000.0,168047000.0,158959000.0,1165841000.0,1247632540.0,1269404000.0,1288171000.0,1305197000.0,1259015000.0,1204761000.0,1287046000.0,1212237000.0,1096012000.0,1003117000.0,981869000.0,1013673838.6,1015979000.0,921622000.0,862608000.0,847047000.0,773128000.0,680808000.0,547771000.0,479105466.3,391668738.9,317124640.8,256971896.0,217132727.3,159617747.2,116518812.4,89885771.3,71837723.0,56510595.3,45327840.0,31904000.0,22113000.0,14872000.0,7460000.0,1170000.0,0.0,,,,,,,,,,,,,,,
GMB,"Gambia, The",,117666000.0,115781000.0,105129000.0,57237000.0,55021000.0,57745000.0,61856000.0,62922000.0,64048000.0,65028000.0,64305000.0,61886000.0,218880000.0,263480000.0,244856000.0,247429000.0,220129000.0,194476000.0,169871000.0,170675000.0,172798000.0,172573000.0,165581000.0,165866000.0,161598000.0,147776000.0,133683000.0,126029000.0,108374727.0,101576361.2,86631218.2,72044100.1,69315254.6,50471413.6,35210955.5,30172168.3,27955633.4,23692746.4,19506000.0,15882000.0,10710000.0,7907000.0,6656000.0,5025000.0,4621000.0,3657000.0,2441000.0,1432000.0,0.0,0.0,,,,,,,,,,
GNB,Guinea-Bissau,,126124000.0,111061000.0,66995000.0,54146000.0,53028000.0,53148000.0,55215000.0,56124000.0,57084000.0,288571000.0,303752000.0,308702000.0,314601000.0,297010000.0,283890000.0,300502000.0,267299000.0,237097000.0,219889000.0,227590000.0,227931000.0,233548000.0,220734000.0,216193000.0,209919000.0,197324000.0,178377000.0,164653000.0,160288355.4,145459379.7,120119475.7,100071593.2,87334149.1,58823382.4,44332876.2,26441856.8,22851233.5,12548937.6,9817880.0,4692000.0,503000.0,,,,,,,,,,,,,,,,,,,
GNQ,Equatorial Guinea,,,,,,,,,,,,,,,,,,,,,,,,,,,,,,,,,,,,,,,,,,,,,,,,,,,,,,,,,,,,,
GRC,Greece,,,,,,,,,,,,,,,,,,,,,,,,,,,,,,,,,,,,,,,,,,,,,,,,,,,,,,,,,,,,,
GRD,Grenada,,122773000.0,121993000.0,92058000.0,78518000.0,77697000.0,66174000.0,54171000.0,48402000.0,45199000.0,44036000.0,39406000.0,36602000.0,34782000.0,27784000.0,22947000.0,21313000.0,19314000.0,16188000.0,9239000.0,9569000.0,9337000.0,8211000.0,7084000.0,7240000.0,7315000.0,7202000.0,6865000.0,6834000.0,7102085.2,5501426.2,4152745.6,3584944.8,3244475.4,2118582.4,0.0,,,,,,,,,,,,,,,,,,,,,,,,,
GRL,Greenland,,,,,,,,,,,,,,,,,,,,,,,,,,,,,,,,,,,,,,,,,,,,,,,,,,,,,,,,,,,,,
GTM,Guatemala,,,,,,,,,,,,,,,,,,,,,,,,,,,,,,,,,,,,,,,,,,,,,,,,,,,,,,,,,,,,,
GUM,Guam,,,,,,,,,,,,,,,,,,,,,,,,,,,,,,,,,,,,,,,,,,,,,,,,,,,,,,,,,,,,,
GUY,Guyana,,82971000.0,75452000.0,35563000.0,25005000.0,20436000.0,14207000.0,12858000.0,10995000.0,10017000.0,9411000.0,9712000.0,9775000.0,9973000.0,9164000.0,226360000.0,246427000.0,232071000.0,195593000.0,177903000.0,179589000.0,183501000.0,234463000.0,218085000.0,212236000.0,203365000.0,182291000.0,163230000.0,133647000.0,134386930.2,92558397.8,34843425.2,35526877.4,36603044.2,33664794.4,27056711.3,25056564.1,25272785.0,25722593.0,25816792.5,18125000.0,15989000.0,9617000.0,6684000.0,5114000.0,4577000.0,4205000.0,2202000.0,765000.0,541000.0,365000.0,,,,,,,,,,
HIC,High income,,,,,,,,,,,,,,,,,,,,,,,,,,,,,,,,,,,,,,,,,,,,,,,,,,,,,,,,,,,,,
HKG,"Hong Kong SAR, China",,,,,,,,,,,,,,,,,,,,,,,,,,,,,,,,,,,,,,,,,,,,,,,,,,,,,,,,,,,,,
HND,Honduras,,908491000.0,936505000.0,984682000.0,940247000.0,965348000.0,935517000.0,898909000.0,809383000.0,731692000.0,602290000.0,502230000.0,448637000.0,401254000.0,349270000.0,1353327000.0,1310464000.0,1142934000.0,1013974000.0,901012000.0,837875000.0,841238000.0,579256000.0,496119000.0,424122000.0,385509000.0,306565000.0,235987000.0,182260000.0,125779260.1,76933000.0,79170000.0,79170000.0,80046000.0,80761000.0,81443000.0,81378000.0,80812000.0,79325000.0,76603000.0,64048000.0,46588000.0,41075000.0,32815000.0,30397000.0,28690000.0,26949000.0,25800000.0,22175000.0,16798000.0,15153000.0,,,,,,,,,,
HPC,Heavily indebted poor countries (HIPC),,,,,,,,,,,,,,,,,,,,,,,,,,,,,,,,,,,,,,,,,,,,,,,,,,,,,,,,,,,,,
HRV,Croatia,,,,,,,,,,,,,,,,,,,,,,,,,,,,,,,,,,,,,,,,,,,,,,,,,,,,,,,,,,,,,
HTI,Haiti,,,,,,,,,,,0.0,38500191.0,507237000.0,518369000.0,511457000.0,505484000.0,504382000.0,517647000.0,501182000.0,466777000.0,480060000.0,503634000.0,492919000.0,458056000.0,441526000.0,389384000.0,346153000.0,337325000.0,343517000.0,329813389.1,323580615.4,293805608.2,285253132.1,280046915.0,209306002.6,173895182.0,150357578.4,122202815.6,96207530.8,82405760.0,66265000.0,53198000.0,45255000.0,37340000.0,19421000.0,6256000.0,412000.0,416000.0,378000.0,350000.0,350000.0,,,,,,,,,,
HUN,Hungary,,,,,,,,,,,,,,,,,,,,,,,,,,,,,,,,,,,,,,,,,,,,,,,,,,,,,,,,,,,,,
IBD,IBRD only,,,,,,,,,,,,,,,,,,,,,,,,,,,,,,,,,,,,,,,,,,,,,,,,,,,,,,,,,,,,,
IBT,IDA & IBRD total,,,,,,,,,,,,,,,,,,,,,,,,,,,,,,,,,,,,,,,,,,,,,,,,,,,,,,,,,,,,,
IDA,IDA total,,,,,,,,,,,,,,,,,,,,,,,,,,,,,,,,,,,,,,,,,,,,,,,,,,,,,,,,,,,,,
IDB,IDA blend,,,,,,,,,,,,,,,,,,,,,,,,,,,,,,,,,,,,,,,,,,,,,,,,,,,,,,,,,,,,,
IDN,Indonesia,,996275000.0,1192270000.0,1391004000.0,1476396000.0,1673832000.0,1877884000.0,2095090000.0,2199889000.0,2276703000.0,2313113000.0,2234469000.0,2006146000.0,1549561000.0,1318310000.0,1000522000.0,996077000.0,879976000.0,794290000.0,722268000.0,713566000.0,681784000.0,694088000.0,715158000.0,735546000.0,755937000.0,776321000.0,796191000.0,813798000.0,829079000.0,842438000.0,853598000.0,860643000.0,865479000.0,856755000.0,844326000.0,811594000.0,762589000.0,707271000.0,632223000.0,565794000.0,525357000.0,495908000.0,466437000.0,417478000.0,318062000.0,211174000.0,134842000.0,67514000.0,31916000.0,5108000.0,,,,,,,,,,
IDX,IDA only,,,,,,,,,,,,,,,,,,,,,,,,,,,,,,,,,,,,,,,,,,,,,,,,,,,,,,,,,,,,,
IMN,Isle of Man,,,,,,,,,,,,,,,,,,,,,,,,,,,,,,,,,,,,,,,,,,,,,,,,,,,,,,,,,,,,,
IND,India,,22017976000.0,23069523000.0,24379153000.0,23519621000.0,24120935000.0,25343487000.0,26405903000.0,26383891000.0,26604766000.0,25888349000.0,26049870000.0,25365082000.0,25318674000.0,24433023000.0,22728227000.0,23716798000.1,22598691000.0,21010862000.0,19457962000.0,18888421000.0,18929685000.0,18561718000.0,17911693000.0,17615773000.0,17499054000.0,17666075000.0,15978150000.0,15339123000.0,14203381000.0,13621962774.6,12568023648.0,12185908716.0,11698029182.0,10402579265.6,9681355452.9,8533133939.1,7807784154.5,6992144618.3,5908688256.6,5142002000.0,4505397000.0,3972025000.0,3655841000.0,3332968000.0,2808602000.0,2323664000.0,1928853000.0,1608727000.0,1170138000.0,1065196000.0,,,,,,,,,,
INX,Not classified,,,,,,,,,,,,,,,,,,,,,,,,,,,,,,,,,,,,,,,,,,,,,,,,,,,,,,,,,,,,,
IRL,Ireland,,,,,,,,,,,,,,,,,,,,,,,,,,,,,,,,,,,,,,,,,,,,,,,,,,,,,,,,,,,,,
IRN,"Iran, Islamic Rep.",,,,,,,,,,,,,,,,,,,,,,,,,,,,,,,,,,,,,,,,,,,,,,,,,,,,,,,,,,,,,
IRQ,Iraq,,,,,,,,,,,,,,,,,,,,,,,,,,,,,,,,,,,,,,,,,,,,,,,,,,,,,,,,,,,,,
ISL,Iceland,,,,,,,,,,,,,,,,,,,,,,,,,,,,,,,,,,,,,,,,,,,,,,,,,,,,,,,,,,,,,
ISR,Israel,,,,,,,,,,,,,,,,,,,,,,,,,,,,,,,,,,,,,,,,,,,,,,,,,,,,,,,,,,,,,
ITA,Italy,,,,,,,,,,,,,,,,,,,,,,,,,,,,,,,,,,,,,,,,,,,,,,,,,,,,,,,,,,,,,
JAM,Jamaica,,,,,,,,,,,,,,,,,,,,,,,,,,,,,,,,,,,,,,,,,,,,,,,,,,,,,,,,,,,,,
JOR,Jordan,,100756000.0,84663000.0,71804000.0,65667000.0,19626000.0,21928000.0,24228000.0,26729000.0,29227000.0,31754000.0,34308000.0,36876000.0,39415000.0,41971000.0,44525000.0,47078000.0,49633000.0,52186000.0,54741000.0,57295000.0,59848000.0,62403000.0,64817000.0,67090000.0,69364000.0,71390000.0,73167000.0,74692000.0,76010000.0,77184000.0,78257000.0,79351000.0,80332000.0,81290000.0,82173000.0,83032000.0,83866000.0,81986000.0,78160000.0,75518000.0,66621000.0,53384000.0,47709000.0,39071000.0,32692000.0,22662000.0,17980000.0,12446000.0,9548000.0,9075000.0,,,,,,,,,,
JPN,Japan,,,,,,,,,,,,,,,,,,,,,,,,,,,,,,,,,,,,,,,,,,,,,,,,,,,,,,,,,,,,,
KAZ,Kazakhstan,,,,,,,,,,,,,,,,,,,,,,,,,,,,,,,,,,,,,,,,,,,,,,,,,,,,,,,,,,,,,
KEN,Kenya,,7124964000.0,5801797000.0,5303104000.0,4567712000.0,4381759000.0,4199127000.0,3982522000.0,3585785000.0,3388428000.0,3237614000.0,3156096000.0,3050475000.0,2968119000.0,2764089000.0,2663220000.0,2881612000.0,2736088000.0,2447022000.0,2263384000.0,2262010000.0,2219853000.0,2210056000.0,2032105000.0,2062398000.0,1976772000.0,1788798000.0,1631042000.0,1410555000.0,1370366066.8,1184554018.5,893099347.7,672698712.1,553117579.2,450939296.8,408479154.0,363118998.3,333943772.0,318685049.6,234132131.5,220025000.0,148945000.0,127916000.0,111988000.0,94573000.0,81165000.0,74550000.0,63421000.0,43829000.0,34838000.0,31768000.0,,,,,,,,,,
KGZ,Kyrgyz Republic,,657031000.0,659529000.0,666981000.0,630599000.0,652061000.0,672245000.0,697671000.0,675024000.0,660493000.0,649351000.0,655981000.0,655494000.0,651135000.0,611803000.0,564960000.0,578915000.0,530419000.0,453552000.0,388675000.0,376810000.0,342360000.0,328027000.0,251149000.0,196846000.0,141177000.0,60350000.0,22601000.0,,,,,,,,,,,,,,,,,,,,,,,,,,,,,,,,,
KHM,Cambodia,,584540000.0,543571000.0,549797000.0,518448000.0,541486000.0,577338000.0,592519000.0,589322000.0,574979000.0,564899000.0,565845000.0,545415000.0,535020000.0,499936000.0,462222000.0,467136000.0,400073000.0,305690000.0,238081000.0,207098000.0,179890000.0,156458000.0,131702000.0,107749000.0,64820000.0,39440000.0,0.0,,,,,,,,,,,,,,,,,,,,,,,,,,,,,,,,,
KIR,Kiribati,,,,,,,,,,,,,,,,,,,,,,,,,,,,,,,,,,,,,,,,,,,,,,,,,,,,,,,,,,,,,
KNA,St. Kitts and Nevis,,,,,,,,,,,1292000.0,1358000.0,1391000.0,1444000.0,1427000.0,1401000.0,1555000.0,1527000.0,1431000.0,1363000.0,1435000.0,1511000.0,1545000.0,1491000.0,1579000.0,1635000.0,1594000.0,1409000.0,560000.0,0.0,0.0,0.0,0.0,0.0,0.0,0.0,0.0,,,,,,,,,,,,,,,,,,,,,,,,
KOR,"Korea, Rep.",,,,,,,,,,,,,,,,,,,,,,,,,,,,,,,,,,,,,,,,,,,,,,,,,,,,,,,,,,,,,
KWT,Kuwait,,,,,,,,,,,,,,,,,,,,,,,,,,,,,,,,,,,,,,,,,,,,,,,,,,,,,,,,,,,,,
LAC,Latin America & Caribbean (excluding high income),,2751703000.0,2644312000.0,2593300000.0,2386961000.0,2376143000.0,2188839000.0,2152743000.0,1953955000.0,1802386000.0,1604167000.0,1465482191.0,1774670000.0,1688193000.0,1524575000.0,5044246000.0,5130184000.0,4606847000.0,3983726000.0,3508078000.0,3378211000.0,3359671000.0,2978753424.5,2609856000.0,2399148000.0,2173458000.0,1887391000.0,1632314000.0,1461879000.0,1303782262.7,1103185871.5,948451828.5,864589896.1,755599872.3,637072687.4,592005546.9,564888396.0,533974596.6,503307078.3,474744566.5,406480908.3,347828000.0,318122000.0,282953000.0,243397000.0,209158000.0,176089000.0,152588000.0,126439000.0,102000000.0,92939000.0,,,,,,,,,,
LAO,Lao PDR,,658619000.0,587688000.0,582459000.0,492533000.0,511270000.0,555594000.0,611202000.0,620328000.0,638522000.0,655311000.0,679707000.0,684793000.0,685734000.0,642689000.0,597802000.0,616183000.0,560532000.0,473493000.0,414933000.0,402907000.0,405159000.0,394659000.0,357956000.0,334883000.0,285329000.0,252996000.0,217259000.0,179577000.0,146944465.1,131170126.2,92415736.2,57070124.8,48109395.2,40303412.8,26562608.2,25710314.1,18788375.0,14220000.0,11050000.0,5640000.0,340000.0,0.0,,,,,,,,,,,,,,,,,,
LBN,Lebanon,,24822000.0,24965000.0,25563000.0,,,,,,,,,,,,,,,,,,,,,,,,,,,,,,,,,,,,,,,,,,,,,,,,,,,,,,,,,
LBR,Liberia,,454936000.0,367648000.0,306397000.0,231253000.0,164323000.0,102315000.0,58947000.0,36970000.0,13723000.0,0.0,68993000.0,72013000.0,76618000.0,108906000.0,105866000.0,110892000.0,107871000.0,102205000.0,97938000.0,100149000.0,103168000.0,104549000.0,102365000.0,105905000.0,108142000.0,106491000.0,103504000.0,103231000.0,105675313.8,105333586.6,100561756.6,101948886.0,104651547.3,90403276.0,75691705.6,60387890.3,46868380.0,36386234.4,28770000.0,22939000.0,18055000.0,13138000.0,9655000.0,6498000.0,4722000.0,2525000.0,217000.0,0.0,,,,,,,,,,,,
LBY,Libya,,,,,,,,,,,,,,,,,,,,,,,,,,,,,,,,,,,,,,,,,,,,,,,,,,,,,,,,,,,,,
LCA,St. Lucia,,83128000.0,81245000.0,79965000.0,72197000.0,71889000.0,73019000.0,73035000.0,64044000.0,63974000.0,59496000.0,50007000.0,49239000.0,46241000.0,40652000.0,27249000.0,26095000.0,23222000.0,20068000.0,11821000.0,11635000.0,11635000.0,11360000.0,9722000.0,8221000.0,7931000.0,5702000.0,5267000.0,4426000.0,626528.4,0.0,,,,,,,,,,,,,,,,,,,,,,,,,,,,,,
LCN,Latin America & Caribbean,,,,,,,,,,,,,,,,,,,,,,,,,,,,,,,,,,,,,,,,,,,,,,,,,,,,,,,,,,,,,
LDC,Least developed countries: UN classification,,,,,,,,,,,,,,,,,,,,,,,,,,,,,,,,,,,,,,,,,,,,,,,,,,,,,,,,,,,,,
LIC,Low income,,33012985000.0,29838826000.0,27488106000.0,23686970000.0,22080059000.0,21473943000.0,20795933000.0,18705040000.0,18219215000.0,17910103540.0,18691274191.0,18568978000.0,17746484000.0,16224586000.0,28847612000.0,29419035000.0,26670174000.0,23147577000.0,20040652000.0,19237651000.0,19356431838.6,19399979000.0,17991066000.0,17679523000.0,16887198000.0,15545571000.0,13841737000.0,12590462000.0,11879363927.0,10738008333.9,8997912945.6,8028892559.3,7153857962.0,5525351478.6,4413141908.9,3630074039.7,3053524005.9,2543353907.8,2124012311.5,1785242000.0,1489664000.0,1216131000.0,954354000.0,713372000.0,491593000.0,356234000.0,279645000.0,197603000.0,138960000.0,101005000.0,,,,,,,,,,
LIE,Liechtenstein,,,,,,,,,,,,,,,,,,,,,,,,,,,,,,,,,,,,,,,,,,,,,,,,,,,,,,,,,,,,,
LKA,Sri Lanka,,2973896000.0,3007386000.0,3058136000.0,2784716000.0,2712363000.0,2789661000.0,2849529000.0,2749760000.0,2652150000.0,2530524000.0,2486760000.0,2380921000.0,2356761000.0,2244549000.0,2094999000.0,2167271000.0,2051279000.0,1734054000.0,1569848000.0,1610300000.0,1651476000.0,1648089000.0,1513705000.0,1516153000.0,1462641000.0,1339088000.0,1222276000.0,1095354000.0,1057931743.3,864343187.3,702351422.7,657855360.2,618537387.3,498420379.2,396941653.8,311403197.5,236556438.3,179156357.5,125742474.4,97929000.0,78237000.0,65883000.0,54692000.0,43623000.0,38611000.0,25033000.0,14105000.0,8148000.0,4797000.0,1144000.0,,,,,,,,,,
LMC,Lower middle income,,118366784000.0,112455564000.0,109809905000.0,98746170000.0,96995327000.0,95110751000.0,94278872000.0,89459247000.0,86992020000.0,82595274000.0,79897064000.0,74702047000.0,72279784000.0,66091958000.0,76443854000.0,78405271000.1,71725380000.0,63731580000.0,57043547000.0,55517394119.0,55185639000.0,53127971000.0,49095954000.0,47632361000.0,45712753000.0,43149013000.0,37675334000.0,35139536000.0,32545920240.6,30056770877.3,26545775178.8,24925600070.8,23380088052.4,20067818697.6,17807038987.1,15583493771.3,14029648209.1,12431131283.3,10426519987.8,8918999908.3,7720204000.0,6691370000.0,6013882000.0,5284632000.0,4364593000.0,3603183000.0,2909520000.0,2303548000.0,1722114000.0,1534692000.0,,,,,,,,,,
LMY,Low & middle income,,158895968000.0,150848420000.0,147127741000.0,132772729000.0,130813420000.0,129934212000.0,130213437000.0,124344474000.0,122036334000.0,118805875540.0,117181280191.0,111489807000.0,107903885000.0,99232434000.0,121309207000.0,124830806000.1,114076930000.0,100812514000.0,89419040000.0,87039123119.0,86793653838.6,84274371424.5,77584936000.0,75335557000.0,71747169000.0,66605900000.0,58362028000.0,53609672000.0,49587483049.5,45266525238.1,39247090020.5,36193435689.5,33293414605.9,27782962977.0,24046948605.0,20749574117.2,18449053510.8,16202558840.0,13682169091.8,11734075908.3,10178840000.0,8818325000.0,7815569000.0,6747563000.0,5463060000.0,4416942000.0,3540554000.0,2748520000.0,2048734000.0,1786712000.0,,,,,,,,,,
LSO,Lesotho,,362837000.0,338258000.0,321420000.0,284061000.0,283652000.0,293214000.0,308205000.0,315746000.0,321665000.0,328388000.0,310686000.0,302704000.0,293158000.0,274627000.0,258201000.0,267597000.0,247263000.0,217829000.0,187122000.0,183223000.0,185049000.0,180148000.0,162865000.0,159334000.0,152774000.0,142994000.0,133562000.0,127053000.0,120734765.4,111734304.3,98817640.1,86839827.2,81439494.1,69604560.8,62291586.0,53206614.6,47904722.5,39592244.0,31304000.0,24091000.0,20294000.0,17704000.0,15005000.0,9999000.0,8090000.0,6355000.0,4960000.0,4946000.0,4100000.0,4100000.0,,,,,,,,,,
LTE,Late-demographic dividend,,,,,,,,,,,,,,,,,,,,,,,,,,,,,,,,,,,,,,,,,,,,,,,,,,,,,,,,,,,,,
LTU,Lithuania,,,,,,,,,,,,,,,,,,,,,,,,,,,,,,,,,,,,,,,,,,,,,,,,,,,,,,,,,,,,,
LUX,Luxembourg,,,,,,,,,,,,,,,,,,,,,,,,,,,,,,,,,,,,,,,,,,,,,,,,,,,,,,,,,,,,,
LVA,Latvia,,,,,,,,,,,,,,,,,,,,,,,,,,,,,,,,,,,,,,,,,,,,,,,,,,,,,,,,,,,,,
MAC,"Macao SAR, China",,,,,,,,,,,,,,,,,,,,,,,,,,,,,,,,,,,,,,,,,,,,,,,,,,,,,,,,,,,,,
MAF,St. Martin (French part),,,,,,,,,,,,,,,,,,,,,,,,,,,,,,,,,,,,,,,,,,,,,,,,,,,,,,,,,,,,,
MAR,Morocco,,2213000.0,3210000.0,4206000.0,5211000.0,6202000.0,7564000.0,8912000.0,10267000.0,11621000.0,12977000.0,14332000.0,15708000.0,17041000.0,18396000.0,19752000.0,21106000.0,22460000.0,23816000.0,25170000.0,26524000.0,27881000.0,29235000.0,30589000.0,31945000.0,33299000.0,34589000.0,35813000.0,37042000.0,38160000.0,39099000.0,39953000.0,40642000.0,41334000.0,42069000.0,42714000.0,42999000.0,41826000.0,40811000.0,39905000.0,39158000.0,38432000.0,38374000.0,38332000.0,35174000.0,30807000.0,29572000.0,23298000.0,15441000.0,8516000.0,2851000.0,,,,,,,,,,
MCO,Monaco,,,,,,,,,,,,,,,,,,,,,,,,,,,,,,,,,,,,,,,,,,,,,,,,,,,,,,,,,,,,,
MDA,Moldova,,616773000.0,620997000.0,612451000.0,566192000.0,541632000.0,534913000.0,534208000.0,506294000.0,434460000.0,386162000.0,332130000.0,311484000.0,291755000.0,242316000.0,209217000.0,201079000.0,174963000.0,144627000.0,113256000.0,103247000.0,76950000.0,38172000.0,34550000.0,,,,,,,,,,,,,,,,,,,,,,,,,,,,,,,,,,,,,
MDG,Madagascar,,1686384000.0,1648010000.0,1594927000.0,1433353000.0,1412191000.0,1365919000.0,1330339000.0,1246421000.0,1198094000.0,1161066000.0,1104906000.0,1066132000.0,864936000.0,636053000.0,2297933000.0,2268870000.0,1975078000.0,1652156000.0,1408525000.0,1377614000.0,1360592000.0,1317162000.0,1211772000.0,1146818000.0,1109876000.0,1021020000.0,931595000.0,887071000.0,880562147.7,770156901.3,669938844.0,606617674.4,550052539.7,422268656.0,315600497.6,251042414.4,223270472.5,187426356.3,154547396.0,121934000.0,97410000.0,84998000.0,76507000.0,67749000.0,54199000.0,40102000.0,27976000.0,15471000.0,12166000.0,9869000.0,,,,,,,,,,
MDV,Maldives,,92171000.0,85388000.0,90115000.0,87511000.0,92646000.0,98725000.0,107172000.0,104731000.0,102685000.0,98640000.0,84181000.0,79141000.0,76747000.0,69776000.0,64404000.0,65615000.0,57583000.0,50328000.0,44357000.0,46374000.0,45560000.0,44071000.0,38987000.0,37310000.0,36102000.0,31637000.0,24875000.0,21839000.0,14477525.4,9975562.0,8259188.9,7378002.3,6995176.1,5090085.6,3815580.3,2959342.5,2481000.0,2168000.0,2108000.0,1634000.0,0.0,,,,,,,,,,,,,,,,,,,
MEA,Middle East & North Africa,,,,,,,,,,,,,,,,,,,,,,,,,,,,,,,,,,,,,,,,,,,,,,,,,,,,,,,,,,,,,
MEX,Mexico,,,,,,,,,,,,,,,,,,,,,,,,,,,,,,,,,,,,,,,,,,,,,,,,,,,,,,,,,,,,,
MHL,Marshall Islands,,,,,,,,,,,,,,,,,,,,,,,,,,,,,,,,,,,,,,,,,,,,,,,,,,,,,,,,,,,,,
MIC,Middle income,,125882983000.0,121009594000.0,119639635000.0,109085759000.0,108733361000.0,108460269000.0,109417504000.0,105639434000.0,103817119000.0,100895772000.0,98490006000.0,92920829000.0,90157401000.0,83007848000.0,92461595000.0,95411771000.1,87406756000.0,77664937000.0,69378388000.0,67801472119.0,67437222000.0,64874392424.5,59593870000.0,57656034000.0,54859971000.0,51060329000.0,44520291000.0,41019210000.0,37708119122.5,34528516904.2,30249177074.9,28164543130.2,26139556643.9,22257611498.4,19633806696.1,17119500077.5,15395529504.9,13659204932.2,11558156780.3,9948833908.3,8689176000.0,7602194000.0,6861215000.0,6034191000.0,4971467000.0,4060708000.0,3260909000.0,2550917000.0,1909774000.0,1685707000.0,,,,,,,,,,
MKD,North Macedonia,,215321000.0,233501000.0,255250000.0,255298000.0,277249000.0,303151000.0,334573000.0,345663000.0,356726000.0,366627000.0,381616000.0,385976000.0,394404000.0,382991000.0,363693000.0,386692000.0,356053000.0,293440000.0,254203000.0,249111000.0,222615000.0,180983000.0,146057000.0,124635000.0,83577000.0,42020000.0,,,,,,,,,,,,,,,,,,,,,,,,,,,,,,,,,,
MLI,Mali,,1969641000.0,1681583000.0,1574123000.0,1364256000.0,1349331000.0,1231870000.0,1202881000.0,1051099000.0,981342000.0,839879000.0,698443000.0,533952000.0,451682000.0,297359000.0,1423842000.0,1440710000.0,1321761000.0,1133709000.0,980748000.0,956887000.0,1035086000.0,1008729000.0,938801000.0,915199000.0,862998000.0,769591000.0,655665000.0,611063000.0,569275420.7,497612050.8,432097076.7,389969066.6,339657793.2,276751846.4,224441918.0,190892803.7,171880949.0,153822932.8,139829752.0,120800000.0,101997000.0,81551000.0,67082000.0,54432000.0,41000000.0,28235000.0,21695000.0,15438000.0,9547000.0,5977000.0,,,,,,,,,,
MLT,Malta,,,,,,,,,,,,,,,,,,,,,,,,,,,,,,,,,,,,,,,,,,,,,,,,,,,,,,,,,,,,,
MMR,Myanmar,,1467678000.0,1265809000.0,1191709000.0,913751000.0,833210000.0,766514000.0,850612000.0,854565000.0,787120000.0,798547000.0,777441000.0,770330000.0,792824000.0,775878000.0,752210000.0,774238000.0,762472000.0,729019000.0,692842000.0,683846000.0,722537000.0,726764000.0,723819000.0,742138000.0,776631000.0,817495000.0,760900000.0,764996000.0,748641000.0,737887582.8,656162038.5,604546311.2,558293600.2,479361147.2,407497692.5,358306727.4,284818481.6,233156450.4,185120000.0,146223000.0,123567000.0,85590000.0,62667000.0,41412000.0,22143000.0,4282000.0,0.0,,,,,,,,,,,,,
MNA,Middle East & North Africa (excluding high income),,2282082000.0,2465104000.0,2683994000.0,2690837000.0,2882186000.0,3144417000.0,3447398000.0,3549125000.0,3640755000.0,3750601000.0,3831228000.0,3801531000.0,3795056000.0,3615573000.0,3344243000.0,3415399000.0,3195712000.0,2915683000.0,2679817000.0,2684640000.0,2697601000.0,2559384000.0,2359969000.0,2218703000.0,2105124000.0,1985212000.0,1884800000.0,1834943000.0,1816067515.5,1773591386.1,1701858229.9,1662655686.6,1616159744.9,1497365534.4,1392599884.8,1277646563.0,1142184716.4,945040023.2,786597539.3,668971000.0,588108000.0,499497000.0,409703000.0,323004000.0,224720000.0,143175000.0,112187000.0,65766000.0,45897000.0,32302000.0,,,,,,,,,,
MNE,Montenegro,,35784000.0,43990000.0,53235000.0,57190000.0,65290000.0,74886000.0,84583000.0,85950000.0,83316000.0,79410000.0,75161000.0,70753000.0,55994000.0,47184000.0,,,,,,,,,,,,,,,,,,,,,,,,,,,,,,,,,,,,,,,,,,,,,,
MNG,Mongolia,,578889000.0,569846000.0,578881000.0,423254000.0,434330000.0,449653000.0,471814000.0,467311000.0,447225000.0,402634000.0,392082000.0,338341000.0,330813000.0,301306000.0,277324000.0,286958000.0,226995000.0,180545000.0,154851000.0,137092000.0,129653000.0,118012000.0,97092000.0,67565000.0,58739000.0,49249000.0,30066000.0,27400000.0,0.0,,,,,,,,,,,,,,,,,,,,,,,,,,,,,,,
MNP,Northern Mariana Islands,,,,,,,,,,,,,,,,,,,,,,,,,,,,,,,,,,,,,,,,,,,,,,,,,,,,,,,,,,,,,
MOZ,Mozambique,,3039196000.0,2904220000.0,2822282000.0,2554627000.0,2460788000.0,2284912000.0,2185015000.0,1808341000.0,1577138000.0,1490905000.0,1355819000.0,1149468000.0,902072000.0,655468000.0,1574781000.0,1475223000.0,1231640000.0,985329000.0,777287000.0,760297000.0,702144000.0,1335248000.0,1159878000.0,1076433000.0,889657000.0,714316000.0,511801000.0,417388000.0,327996181.1,267940939.1,175901630.0,126779742.7,87193680.9,30062586.4,5085684.6,,,,,,,,,,,,,,,,,,,,,,,,,
MRT,Mauritania,,387548000.0,382223000.0,390150000.0,366218000.0,368571000.0,378650000.0,393563000.0,384257000.0,345177000.0,316225000.0,282094000.0,242815000.0,203268000.0,130053000.0,676678000.0,693834000.0,633536000.0,546681000.0,475032000.0,449457000.0,415325000.0,407599000.0,372462000.0,359484000.0,336020000.0,300900000.0,256252000.0,228486000.0,223753746.0,209527983.4,159721872.5,150495812.7,125831708.5,77205863.2,62387851.3,55095355.2,51598570.5,49253425.6,44007336.0,37913000.0,34054000.0,29883000.0,24275000.0,18624000.0,14050000.0,12158000.0,11299000.0,9619000.0,8503000.0,4927000.0,,,,,,,,,,
MUS,Mauritius,,,,,,,,,,,,,,,,,,,,,,,,,,,,,,,,,,,,,,,,,,,,,,,,,,,,,,,,,,,,,
MWI,Malawi,,969287000.0,916703000.0,862162000.0,642213000.0,588186000.0,501386000.0,417525000.0,322954000.0,274145000.0,242588000.0,212764000.0,187724000.0,177551000.0,156890000.0,1940371000.0,2075297000.0,1958110000.0,1770298000.0,1623678000.0,1592170000.0,1585962000.0,1542402000.0,1375423000.0,1345549000.0,1251293000.0,1160367000.0,1062364000.0,918858000.0,866283029.9,763529363.8,625349164.2,555297263.5,509271427.7,421529696.0,322092229.0,275399281.9,204726747.8,176512119.9,150594612.0,130519000.0,116235000.0,102311000.0,84394000.0,73578000.0,61693000.0,50249000.0,42789000.0,34233000.0,24192000.0,16891000.0,,,,,,,,,,
MYS,Malaysia,,,,,,,,,,,,,,,,,,,,,,,,,,,,,,,,,,,,,,,,,,,,,,,,,,,,,,,,,,,,,
NAC,North America,,,,,,,,,,,,,,,,,,,,,,,,,,,,,,,,,,,,,,,,,,,,,,,,,,,,,,,,,,,,,
NAM,Namibia,,,,,,,,,,,,,,,,,,,,,,,,,,,,,,,,,,,,,,,,,,,,,,,,,,,,,,,,,,,,,
NCL,New Caledonia,,,,,,,,,,,,,,,,,,,,,,,,,,,,,,,,,,,,,,,,,,,,,,,,,,,,,,,,,,,,,
NER,Niger,,1346786000.0,1044038000.0,987865000.0,772581000.0,626206000.0,575979000.0,549653000.0,447194000.0,354586000.0,275240000.0,265733000.0,248098000.0,234874000.0,188900000.0,1080122000.0,1106072000.0,1007409000.0,867301000.0,753357000.0,723201000.0,693574000.0,687454000.0,624655000.0,609227000.0,597925000.0,565349000.0,503495000.0,483200000.0,479207126.9,460637715.3,382940475.3,348183851.2,272822067.0,190869402.4,146690071.6,121224032.8,105206496.5,91582961.6,78581000.0,66113000.0,48053000.0,36458000.0,28000000.0,21816000.0,18172000.0,15857000.0,14031000.0,9619000.0,5993000.0,4248000.0,,,,,,,,,,
NGA,Nigeria,,9549703000.0,8432788000.0,7788784000.0,6636161000.0,6222292000.0,5778820000.0,5278061000.0,4686028000.0,4200794000.0,3662052000.0,2739403000.0,2243070000.0,1928523000.0,1540734000.0,1136411000.0,966844000.0,786966000.0,675748000.0,621014000.0,643871000.0,624019000.0,563553000.0,409858000.0,347758000.0,268002000.0,180754000.0,116438000.0,80124000.0,58947435.2,36279045.8,29888000.0,31084000.0,32279000.0,33475000.0,34670000.0,35866000.0,36264000.0,36663000.0,37062000.0,37460000.0,37859000.0,38257000.0,38462000.0,36497000.0,36438000.0,35647000.0,31833000.0,24403000.0,18502000.0,17183000.0,,,,,,,,,,
NIC,Nicaragua,,692201000.0,624141000.0,594871000.0,531337000.0,532425000.0,523286000.0,533413000.0,498248000.0,473767000.0,447212000.0,417996000.0,347456000.0,321434000.0,255656000.0,1135673000.0,1166845000.0,997635000.0,811002000.0,690608000.0,654370000.0,597677000.0,487304000.0,367774000.0,335278000.0,276220000.0,253941000.0,195933000.0,181930000.0,113380470.3,60281374.0,59958224.0,60083230.0,60367774.0,59605480.0,59118838.0,58657819.0,57065473.0,55429954.5,53256014.0,42479908.3,23216000.0,23077000.0,22300000.0,19193000.0,13450000.0,7884000.0,4322000.0,3237000.0,2995000.0,2995000.0,,,,,,,,,,
NLD,Netherlands,,,,,,,,,,,,,,,,,,,,,,,,,,,,,,,,,,,,,,,,,,,,,,,,,,,,,,,,,,,,,
NOR,Norway,,,,,,,,,,,,,,,,,,,,,,,,,,,,,,,,,,,,,,,,,,,,,,,,,,,,,,,,,,,,,
NPL,Nepal,,2877236000.0,2476919000.0,2021772000.0,1708225000.0,1640015000.0,1517303000.0,1553423000.0,1458676000.0,1426053000.0,1426265000.0,1482628000.0,1506561000.0,1524062000.0,1467969000.0,1395638000.0,1490945000.0,1387939000.0,1209560000.0,1122067000.0,1132348000.0,1146849000.0,1131036000.0,1046906000.0,1048712000.0,1022680000.0,931462000.0,832048000.0,764881000.0,718555662.9,667473807.0,571564106.0,466015360.1,391848103.0,295428302.4,236029327.6,200021468.9,172055759.5,142235629.8,108915632.6,76120000.0,51096000.0,32511000.0,21483000.0,9252000.0,5492000.0,3169000.0,2006000.0,398000.0,286000.0,93000.0,,,,,,,,,,
NRU,Nauru,,,,,,,,,,,,,,,,,,,,,,,,,,,,,,,,,,,,,,,,,,,,,,,,,,,,,,,,,,,,,
NZL,New Zealand,,,,,,,,,,,,,,,,,,,,,,,,,,,,,,,,,,,,,,,,,,,,,,,,,,,,,,,,,,,,,
OED,OECD members,,,,,,,,,,,,,,,,,,,,,,,,,,,,,,,,,,,,,,,,,,,,,,,,,,,,,,,,,,,,,
OMN,Oman,,,,,,,,,,,,,,,,,,,,,,,,,,,,,,,,,,,,,,,,,,,,,,,,,,,,,,,,,,,,,
OSS,Other small states,,,,,,,,,,,,,,,,,,,,,,,,,,,,,,,,,,,,,,,,,,,,,,,,,,,,,,,,,,,,,
PAK,Pakistan,,13887933000.0,13794729000.0,13988486000.0,12811112000.0,12616596000.0,11749081000.0,11308515000.0,11136407000.0,10772103000.0,10118278000.0,10075299000.0,9052719000.0,9075074000.0,7871070000.0,6865446000.0,6818366000.0,5869017000.0,5394331000.0,4244619000.0,3828347000.0,3905068000.0,3800351000.0,3525910000.0,3479635000.0,3320544000.0,3054038000.0,2682795000.0,2456585000.0,2310765426.2,2106240378.5,1914833916.7,1841561744.8,1778985435.6,1559663792.8,1390664806.4,1256191101.6,1144679011.7,1050975968.2,908805068.9,820909000.0,750622000.0,677959000.0,623166000.0,548774000.0,484044000.0,499794000.0,434252000.0,365524000.0,313189000.0,280273000.0,,,,,,,,,,
PAN,Panama,,,,,,,,,,,,,,,,,,,,,,,,,,,,,,,,,,,,,,,,,,,,,,,,,,,,,,,,,,,,,
PER,Peru,,,,,,,,,,,,,,,,,,,,,,,,,,,,,,,,,,,,,,,,,,,,,,,,,,,,,,,,,,,,,
PHL,Philippines,,48860000.0,66026000.0,84332000.0,97803000.0,113329000.0,127244000.0,143642000.0,153768000.0,163020000.0,171331000.0,180547000.0,186691000.0,194633000.0,196120000.0,196781000.0,214119000.0,214587000.0,208399000.0,204052000.0,207242000.0,206039000.0,205427000.0,194782000.0,192930000.0,183068000.0,173685000.0,166866000.0,166021000.0,134668186.1,101274000.0,102326000.0,101716000.0,99144000.0,91820000.0,84088000.0,71116000.0,61156000.0,48636000.0,40951000.0,33892000.0,32212000.0,29687000.0,28828000.0,26873000.0,16689000.0,8314000.0,897000.0,129000.0,,,,,,,,,,,,
PLW,Palau,,,,,,,,,,,,,,,,,,,,,,,,,,,,,,,,,,,,,,,,,,,,,,,,,,,,,,,,,,,,,
PNG,Papua New Guinea,,427571000.0,413567000.0,231464000.0,203954000.0,180772000.0,166701000.0,146429000.0,122861000.0,99315000.0,85987000.0,82084000.0,71170000.0,73041000.0,75507000.0,77758000.0,83702000.0,85891000.0,86633000.0,87875000.0,92231000.0,96535000.0,99843000.0,100999000.0,105139000.0,108176000.0,108975000.0,108981000.0,110536000.0,113479494.7,114571467.4,112691376.9,114266275.9,116465621.7,111846372.0,108642666.2,102157953.6,90012946.4,73704143.0,64823000.0,55056000.0,42606000.0,36172000.0,30697000.0,22998000.0,21122000.0,15895000.0,11491000.0,9210000.0,4919000.0,980000.0,,,,,,,,,,
POL,Poland,,,,,,,,,,,,,,,,,,,,,,,,,,,,,,,,,,,,,,,,,,,,,,,,,,,,,,,,,,,,,
PRE,Pre-demographic dividend,,,,,,,,,,,,,,,,,,,,,,,,,,,,,,,,,,,,,,,,,,,,,,,,,,,,,,,,,,,,,
PRI,Puerto Rico,,,,,,,,,,,,,,,,,,,,,,,,,,,,,,,,,,,,,,,,,,,,,,,,,,,,,,,,,,,,,
PRK,"Korea, Dem. People's Rep.",,,,,,,,,,,,,,,,,,,,,,,,,,,,,,,,,,,,,,,,,,,,,,,,,,,,,,,,,,,,,
PRT,Portugal,,,,,,,,,,,,,,,,,,,,,,,,,,,,,,,,,,,,,,,,,,,,,,,,,,,,,,,,,,,,,
PRY,Paraguay,,3600000.0,4398000.0,5272000.0,6146000.0,7020000.0,8166000.0,9311000.0,10521000.0,11798000.0,13291000.0,14784000.0,16276000.0,17770000.0,19263000.0,20755000.0,22249000.0,23742000.0,25295000.0,26727000.0,28221000.0,29715000.0,31206000.0,32699000.0,34194000.0,35607000.0,36979000.0,38093000.0,39208000.0,40219000.0,41232000.0,42244000.0,43207000.0,44100000.0,45025000.0,45896000.0,46565000.0,47105000.0,47164000.0,47097000.0,44866000.0,42226000.0,38887000.0,33758000.0,28736000.0,26292000.0,25453000.0,25552000.0,22975000.0,19922000.0,18372000.0,,,,,,,,,,
PSE,West Bank and Gaza,,,,,,,,,,,,,,,,,,,,,,,,,,,,,,,,,,,,,,,,,,,,,,,,,,,,,,,,,,,,,
PSS,Pacific island small states,,,,,,,,,,,,,,,,,,,,,,,,,,,,,,,,,,,,,,,,,,,,,,,,,,,,,,,,,,,,,
PST,Post-demographic dividend,,,,,,,,,,,,,,,,,,,,,,,,,,,,,,,,,,,,,,,,,,,,,,,,,,,,,,,,,,,,,
PYF,French Polynesia,,,,,,,,,,,,,,,,,,,,,,,,,,,,,,,,,,,,,,,,,,,,,,,,,,,,,,,,,,,,,
QAT,Qatar,,,,,,,,,,,,,,,,,,,,,,,,,,,,,,,,,,,,,,,,,,,,,,,,,,,,,,,,,,,,,
ROU,Romania,,,,,,,,,,,,,,,,,,,,,,,,,,,,,,,,,,,,,,,,,,,,,,,,,,,,,,,,,,,,,
RUS,Russian Federation,,,,,,,,,,,,,,,,,,,,,,,,,,,,,,,,,,,,,,,,,,,,,,,,,,,,,,,,,,,,,
RWA,Rwanda,,1897342000.0,1610458000.0,1403508000.0,1048538000.0,861911000.0,605320000.0,472556000.0,429900000.0,391665000.0,259400000.0,254227000.0,241748000.0,203840000.0,168512000.0,980303000.0,1019855000.0,909241000.0,825638000.0,712719000.0,691917000.0,691455000.0,639090000.0,557896000.0,535656000.0,512045000.0,474188000.0,445631000.0,408155000.0,390136241.4,339896729.5,302097326.7,273931894.4,251174325.1,195102685.6,151877591.4,118119226.2,95000552.0,76760000.0,65124000.0,58118000.0,47887000.0,36961000.0,30475000.0,21134000.0,12766000.0,8186000.0,3709000.0,1191000.0,220000.0,63000.0,,,,,,,,,,
SAS,South Asia,,58246740000.0,57526798000.0,57741607000.0,53330500000.0,53269285000.0,53480484000.0,54409808000.0,53589544000.0,52820571000.0,51233489000.0,51504533000.0,49529257000.0,48915266000.0,45803090000.0,42193408000.0,43441154000.1,40161220000.0,36500534000.0,32908608000.0,31963220000.0,32130636000.0,31376958000.0,29760823000.0,29433296000.0,29001240000.0,28421362000.0,25582431000.0,24229699000.0,22682710195.5,21380947297.2,19219070268.1,18356775821.4,17488075958.6,15213087180.0,13730295369.3,11981146988.1,10822310691.6,9636696307.6,8139069341.8,7064597000.0,6155646000.0,5356100000.0,4859811000.0,4351040000.0,3631523000.0,3055640000.0,2470437000.0,1985836000.0,1488410000.0,1346706000.0,,,,,,,,,,
SAU,Saudi Arabia,,,,,,,,,,,,,,,,,,,,,,,,,,,,,,,,,,,,,,,,,,,,,,,,,,,,,,,,,,,,,
SDN,Sudan,,1201291000.0,1205793000.0,1224647000.0,1179515000.0,1202930000.0,1238606000.0,1290174000.0,1288432000.0,1287498000.0,1290293000.0,1305941000.0,1299722000.0,1306968000.0,1271069000.0,1233532000.0,1299569000.0,1262493000.0,1192223000.0,1137459000.0,1166914000.0,1207991000.0,1226006000.0,1197817000.0,1243517000.0,1272401000.0,1251097000.0,1205025000.0,1132981000.0,1105401250.7,1028252261.8,870779458.7,795547161.6,687730718.1,596501407.2,517394748.9,470515204.8,393938610.1,340608403.9,254050000.0,189566000.0,153097000.0,126668000.0,95836000.0,70538000.0,33755000.0,18670000.0,16477000.0,13543000.0,12448000.0,12277000.0,,,,,,,,,,
SEN,Senegal,,2656661000.0,2070419000.0,1999345000.0,1669751000.0,1597935000.0,1504347000.0,1460241000.0,1325852000.0,1187227000.0,1023255000.0,927209000.0,786431000.0,659310000.0,501794000.0,2059824000.0,2056394000.0,1814939000.0,1582971000.0,1386978000.0,1332069000.0,1311885000.0,1301533000.0,1187123000.0,1194111000.0,1125663000.0,1004471000.0,917480000.0,873016000.0,800440712.3,746939123.6,592390484.2,551803899.2,506493916.1,353336508.8,231768969.3,198732682.9,182692025.0,165591915.1,146497904.5,99760000.0,87858000.0,71866000.0,62239000.0,54871000.0,43376000.0,31521000.0,20713000.0,15785000.0,10644000.0,8709000.0,,,,,,,,,,
SGP,Singapore,,,,,,,,,,,,,,,,,,,,,,,,,,,,,,,,,,,,,,,,,,,,,,,,,,,,,,,,,,,,,
SLB,Solomon Islands,,38543000.0,36628000.0,36110000.0,33611000.0,31175000.0,34101000.0,37848000.0,39185000.0,40368000.0,41723000.0,43683000.0,44471000.0,45786000.0,44940000.0,43394000.0,46788000.0,44295000.0,40757000.0,37879000.0,38357000.0,39925000.0,32731000.0,29890000.0,29160000.0,25939000.0,22359000.0,19630000.0,18444000.0,18669973.0,16571143.7,12844599.9,10757525.8,9963249.2,7269477.6,5299876.5,3146474.1,1528547.0,101486.1,0.0,,,,,,,,,,,,,,,,,,,,,
SLE,Sierra Leone,,347957000.0,284315000.0,275684000.0,224300000.0,225691000.0,236724000.0,241499000.0,226489000.0,187932000.0,154591000.0,124306000.0,108428000.0,83637000.0,533496000.0,558621000.0,590588000.0,542523000.0,478603000.0,407448000.0,353659000.0,299478000.0,298410000.0,270237000.0,257534000.0,231276000.0,185644000.0,142693000.0,108026000.0,81438094.2,81298536.5,77562772.1,78375864.1,79992272.8,71356751.2,59091797.0,47409436.4,42458513.0,37085554.8,31448080.6,29116000.0,26776000.0,24662000.0,14440000.0,12400000.0,10463000.0,8068000.0,5863000.0,898000.0,76000.0,7000.0,,,,,,,,,,
SLV,El Salvador,,2350000.0,2901000.0,3451000.0,4001000.0,4552000.0,5102000.0,5652000.0,6203000.0,6898000.0,7738000.0,8577000.0,9418000.0,10258000.0,11097000.0,11938000.0,12778000.0,13617000.0,14458000.0,15298000.0,16137000.0,16978000.0,17818000.0,18657000.0,19498000.0,20218000.0,20937000.0,21537000.0,22138000.0,22737000.0,23337000.0,24015000.0,24283000.0,24757000.0,25230000.0,25788000.0,26056000.0,26409000.0,26762000.0,27018000.0,26572000.0,23811000.0,20813000.0,18850000.0,18069000.0,16613000.0,15758000.0,15833000.0,13477000.0,7999000.0,7999000.0,,,,,,,,,,
SMR,San Marino,,,,,,,,,,,,,,,,,,,,,,,,,,,,,,,,,,,,,,,,,,,,,,,,,,,,,,,,,,,,,
SOM,Somalia,,411338000.0,412919000.0,419542000.0,403684000.0,411912000.0,424451000.0,442574000.0,441963000.0,441633000.0,442583000.0,448080000.0,445880000.0,447995000.0,435384000.0,421649000.0,444360000.0,430709000.0,405095000.0,385823000.0,395806000.0,408920000.0,415699000.0,405832000.0,421829000.0,431940000.0,424480000.0,410984000.0,409751000.0,420963068.4,418938339.0,366193750.8,317497540.1,297613211.6,239222099.2,186024387.3,147554131.7,124096757.7,107692796.5,91171000.0,72218000.0,62502000.0,55674000.0,46328000.0,36731000.0,30093000.0,21074000.0,14500000.0,10555000.0,8649000.0,7116000.0,,,,,,,,,,
SRB,Serbia,,251698000.0,319465000.0,395032000.0,436578000.0,515233000.0,598055000.0,684556000.0,708179000.0,702159000.0,680857000.0,676351000.0,654707000.0,624689000.0,553036000.0,486270000.0,434278000.0,274894000.0,167384000.0,0.0,0.0,,,,,,,,,,,,,,,,,,,,,,,,,,,,,,,,,,,,,,,,
SSA,Sub-Saharan Africa (excluding high income),,68644273000.0,60865989000.0,56494459000.0,48236736000.0,45105043000.0,42646549000.0,40372166000.0,35706898000.0,34916733000.0,32942260540.0,31610335000.0,29316201000.0,27323332000.0,24184061000.0,48448181000.0,49677846000.0,45142897000.0,39312133000.0,34469018000.0,33562149000.0,33389305838.6,32975056000.0,30201866000.0,29425914000.0,27825561000.0,25053864000.0,21371631000.0,19188100000.0,17766431331.6,15699599202.3,12902805411.9,11388033829.1,10052047192.0,7721031720.8,6077172316.3,5038451665.9,4340655168.4,3740052295.5,3081751644.2,2557090000.0,2139318000.0,1780036000.0,1470776000.0,1145208000.0,870610000.0,674149000.0,544477000.0,394242000.0,287673000.0,225680000.0,,,,,,,,,,
SSD,South Sudan,,,,,,,,,,,,,,,,,,,,,,,,,,,,,,,,,,,,,,,,,,,,,,,,,,,,,,,,,,,,,
SSF,Sub-Saharan Africa,,,,,,,,,,,,,,,,,,,,,,,,,,,,,,,,,,,,,,,,,,,,,,,,,,,,,,,,,,,,,
SST,Small states,,,,,,,,,,,,,,,,,,,,,,,,,,,,,,,,,,,,,,,,,,,,,,,,,,,,,,,,,,,,,
STP,Sao Tome and Principe,,11138000.0,11460000.0,11998000.0,11574000.0,12186000.0,13009000.0,14004000.0,14048000.0,14105000.0,14218000.0,14405000.0,13264000.0,10721000.0,76421000.0,72355000.0,76884000.0,71429000.0,65589000.0,60961000.0,58898000.0,60680000.0,61317000.0,57426000.0,59476000.0,53551000.0,46858000.0,38313000.0,33583000.0,29408211.5,23872234.8,16818619.7,10083330.1,3146587.9,841561.6,0.0,,,,,,,,,,,,,,,,,,,,,,,,,
SUR,Suriname,,,,,,,,,,,,,,,,,,,,,,,,,,,,,,,,,,,,,,,,,,,,,,,,,,,,,,,,,,,,,
SVK,Slovak Republic,,,,,,,,,,,,,,,,,,,,,,,,,,,,,,,,,,,,,,,,,,,,,,,,,,,,,,,,,,,,,
SVN,Slovenia,,,,,,,,,,,,,,,,,,,,,,,,,,,,,,,,,,,,,,,,,,,,,,,,,,,,,,,,,,,,,
SWE,Sweden,,,,,,,,,,,,,,,,,,,,,,,,,,,,,,,,,,,,,,,,,,,,,,,,,,,,,,,,,,,,,
SWZ,Eswatini,,745000.0,894000.0,1043000.0,1195000.0,1341000.0,1490000.0,1639000.0,1788000.0,1938000.0,2187000.0,2438000.0,2693000.0,2939000.0,3189000.0,3439000.0,3690000.0,3940000.0,4190000.0,4441000.0,4691000.0,4942000.0,5192000.0,5442000.0,5693000.0,5943000.0,6194000.0,6344000.0,6500000.0,6647000.0,6797000.0,6948000.0,7100000.0,7250000.0,7401000.0,7553000.0,7704000.0,7703000.0,7906000.0,7631000.0,7483000.0,7178000.0,6509000.0,5341000.0,3327000.0,3281000.0,3278000.0,3312000.0,3010000.0,2800000.0,2800000.0,,,,,,,,,,
SXM,Sint Maarten (Dutch part),,,,,,,,,,,,,,,,,,,,,,,,,,,,,,,,,,,,,,,,,,,,,,,,,,,,,,,,,,,,,
SYC,Seychelles,,,,,,,,,,,,,,,,,,,,,,,,,,,,,,,,,,,,,,,,,,,,,,,,,,,,,,,,,,,,,
SYR,Syrian Arab Republic,,14052000.0,14052000.0,14052000.0,14052000.0,14052000.0,14052000.0,14052000.0,14052000.0,14051000.0,14931000.0,16389000.0,17848000.0,19307000.0,20766000.0,22224000.0,23683000.0,25142000.0,26600000.0,28059000.0,29517000.0,30976000.0,32434000.0,33894000.0,43908000.0,43908000.0,43908000.0,43908000.0,43908000.0,43908000.0,43908000.0,45466000.0,45466000.0,45466000.0,45467000.0,45809000.0,46493000.0,47130000.0,46579000.0,45092000.0,42057000.0,40505000.0,38917000.0,30056000.0,21095000.0,9424000.0,8246000.0,7588000.0,7109000.0,6435000.0,4156000.0,,,,,,,,,,
TCA,Turks and Caicos Islands,,,,,,,,,,,,,,,,,,,,,,,,,,,,,,,,,,,,,,,,,,,,,,,,,,,,,,,,,,,,,
TCD,Chad,,176194000.0,180749000.0,188823000.0,179970000.0,187166000.0,747069000.0,810156000.0,829511000.0,845304000.0,864708000.0,896286000.0,904807000.0,968127000.0,925246000.0,863936000.0,873611000.0,772575000.0,622953000.0,515624000.0,515389000.0,526610000.0,487708000.0,457193000.0,432861000.0,378832000.0,331951000.0,283980000.0,259151000.0,234938323.4,186390003.3,129929958.9,97617891.3,61318784.6,47983536.8,39914000.0,39888000.0,36449000.0,36101000.0,36133000.0,36133000.0,35771000.0,30791000.0,23792000.0,16035000.0,11397000.0,6939000.0,4492000.0,2645000.0,1851000.0,321000.0,,,,,,,,,,
TEA,East Asia & Pacific (IDA & IBRD countries),,,,,,,,,,,,,,,,,,,,,,,,,,,,,,,,,,,,,,,,,,,,,,,,,,,,,,,,,,,,,
TEC,Europe & Central Asia (IDA & IBRD countries),,,,,,,,,,,,,,,,,,,,,,,,,,,,,,,,,,,,,,,,,,,,,,,,,,,,,,,,,,,,,
TGO,Togo,,165256000.0,66030000.0,50462000.0,38679000.0,30772000.0,27883000.0,14014000.0,13986000.0,0.0,554326000.0,586072000.0,604180000.0,723155000.0,696437000.0,667337000.0,715458000.0,686545000.0,632333000.0,584669000.0,604129000.0,622086000.0,619674000.0,560825000.0,576363000.0,540947000.0,512987000.0,468815000.0,460400000.0,443965956.8,393191134.1,339912312.5,306254109.2,267089158.8,222493084.0,161161192.8,122750507.8,100829048.2,61310928.2,50616000.0,43063000.0,30597000.0,23077000.0,16270000.0,10613000.0,6202000.0,4134000.0,3931000.0,3351000.0,2536000.0,1894000.0,,,,,,,,,,
THA,Thailand,,,,,,,,,,0.0,55735000.0,59112000.0,62488000.0,65865000.0,69242000.0,72618000.0,75996000.0,79370000.0,82748000.0,86124000.0,89503000.0,92880000.0,95720000.0,98027000.0,99787000.0,101546000.0,103308000.0,104998000.0,106372000.0,107498000.0,108623000.0,109780000.0,110554000.0,110518000.0,108883000.0,105185000.0,97312000.0,86800000.0,69451000.0,50909000.0,32192000.0,28053000.0,24511000.0,19405000.0,10649000.0,4122000.0,1435000.0,172000.0,,,,,,,,,,,,,
TJK,Tajikistan,,341763000.0,333198000.0,326418000.0,305131000.0,315822000.0,337163000.0,365584000.0,371701000.0,374205000.0,377048000.0,372831000.0,365247000.0,360495000.0,339036000.0,307705000.0,295673000.0,227543000.0,194982000.0,171646000.0,142620000.0,126049000.0,91824000.0,50102000.0,30212000.0,,,,,,,,,,,,,,,,,,,,,,,,,,,,,,,,,,,,
TKM,Turkmenistan,,,,,,,,,,,,,,,,,,,,,,,,,,,,,,,,,,,,,,,,,,,,,,,,,,,,,,,,,,,,,
TLA,Latin America & the Caribbean (IDA & IBRD countries),,,,,,,,,,,,,,,,,,,,,,,,,,,,,,,,,,,,,,,,,,,,,,,,,,,,,,,,,,,,,
TLS,Timor-Leste,,31101000.0,27757000.0,24954000.0,15594000.0,9959000.0,2858000.0,0.0,,,,,,,,,,,,,,,,,,,,,,,,,,,,,,,,,,,,,,,,,,,,,,,,,,,,,
TMN,Middle East & North Africa (IDA & IBRD countries),,,,,,,,,,,,,,,,,,,,,,,,,,,,,,,,,,,,,,,,,,,,,,,,,,,,,,,,,,,,,
TON,Tonga,,42897000.0,39065000.0,37220000.0,29083000.0,26469000.0,25922000.0,22865000.0,23121000.0,23332000.0,23574000.0,23169000.0,21557000.0,21121000.0,16020000.0,12611000.0,8934000.0,7383000.0,4243000.0,3810000.0,4024000.0,4302000.0,4422000.0,4287000.0,4553000.0,4795000.0,4450000.0,3422000.0,3230000.0,3237063.3,2631921.0,1469230.9,1476232.9,0.0,,,,,,,,,,,,,,,,,,,,,,,,,,,
TSA,South Asia (IDA & IBRD),,,,,,,,,,,,,,,,,,,,,,,,,,,,,,,,,,,,,,,,,,,,,,,,,,,,,,,,,,,,,
TSS,Sub-Saharan Africa (IDA & IBRD countries),,,,,,,,,,,,,,,,,,,,,,,,,,,,,,,,,,,,,,,,,,,,,,,,,,,,,,,,,,,,,
TTO,Trinidad and Tobago,,,,,,,,,,,,,,,,,,,,,,,,,,,,,,,,,,,,,,,,,,,,,,,,,,,,,,,,,,,,,
TUN,Tunisia,,1964000.0,3237000.0,4660000.0,6083000.0,7819000.0,9760000.0,11694000.0,13633000.0,15661000.0,17775000.0,19890000.0,22004000.0,24118000.0,26233000.0,28347000.0,30462000.0,32576000.0,34691000.0,36806000.0,38921000.0,41034000.0,43150000.0,45263000.0,47378000.0,49494000.0,51608000.0,53723000.0,55766000.0,57641000.0,59365000.0,60833000.0,62098000.0,63150000.0,64430000.0,65351000.0,66171000.0,66993000.0,67779000.0,67504000.0,67840000.0,67220000.0,67326000.0,66751000.0,64073000.0,55308000.0,42723000.0,36679000.0,28906000.0,21074000.0,16220000.0,,,,,,,,,,
TUR,Turkey,,5669000.0,8223000.0,11201000.0,14178000.0,17157000.0,20675000.0,25077000.0,30003000.0,35887000.0,41771000.0,47656000.0,53539000.0,59427000.0,65311000.0,71196000.0,77080000.0,82967000.0,88851000.0,94737000.0,100620000.0,106506000.0,112390000.0,118276000.0,124162000.0,130045000.0,135929000.0,141818000.0,147701000.0,152970000.0,157393000.0,161575000.0,166191000.0,169903000.0,173558000.0,177457000.0,180997000.0,183950000.0,186547000.0,188203000.0,189432000.0,190294000.0,188465000.0,181035000.0,163333000.0,143521000.0,126789000.0,113463000.0,99384000.0,87919000.0,82997000.0,,,,,,,,,,
TUV,Tuvalu,,,,,,,,,,,,,,,,,,,,,,,,,,,,,,,,,,,,,,,,,,,,,,,,,,,,,,,,,,,,,
TZA,Tanzania,,7340914000.0,6814870000.0,6467475000.0,5620831000.0,5399245000.0,5044574000.0,4746441000.0,4030440000.0,3490279000.0,3248166000.0,2598493000.0,1971488000.0,1585295000.0,1055760000.0,3860941000.0,3915514000.0,3473817000.0,2868530000.0,2587902000.0,2592571000.0,2594004000.0,2463034000.0,2305686000.0,2241915000.0,2182352000.0,1997871000.0,1758983000.0,1618310000.0,1433570166.8,1250307799.0,1015636484.1,914019552.0,800795456.4,670118705.6,568208500.5,517994460.7,475276638.0,414361705.8,318929988.0,242146000.0,207728000.0,169330000.0,145324000.0,108946000.0,80789000.0,63315000.0,57642000.0,49134000.0,42696000.0,34618000.0,,,,,,,,,,
UGA,Uganda,,3442560000.0,3095196000.0,2979564000.0,2575503000.0,2509876000.0,2406629000.0,2394237000.0,2033340000.0,1843794000.0,1682408000.0,1378799000.0,1004189000.0,840099000.0,436242000.0,3141494000.0,3302693000.0,3060832000.0,2575760000.0,2309621000.0,2114716000.0,2042723000.0,1947211000.0,1954204000.0,1848546000.0,1792284000.0,1603987000.0,1326753000.0,1188010000.0,1079712412.4,934815004.0,672808403.3,585004526.5,534327418.9,370425752.8,285158902.5,177192208.0,123340045.2,91843258.2,61200000.0,46297000.0,45558000.0,44526000.0,43037000.0,42194000.0,39535000.0,36777000.0,35613000.0,29492000.0,21042000.0,12980000.0,,,,,,,,,,
UKR,Ukraine,,,,,,,,,,,,,,,,,,,,,,,,,,,,,,,,,,,,,,,,,,,,,,,,,,,,,,,,,,,,,
UMC,Upper middle income,,7516199000.0,8554030000.0,9829730000.0,10339589000.0,11738034000.0,13349518000.0,15138632000.0,16180187000.0,16825099000.0,18300498000.0,18592942000.0,18218782000.0,17877617000.0,16915890000.0,16017741000.0,17006500000.0,15681376000.0,13933357000.0,12334841000.0,12284078000.0,12251583000.0,11746421424.5,10497916000.0,10023673000.0,9147218000.0,7911316000.0,6844957000.0,5879674000.0,5162198881.9,4471746026.9,3703401896.1,3238943059.4,2759468591.5,2189792800.8,1826767709.0,1536006306.2,1365881295.8,1228073648.9,1131636792.5,1029834000.0,968972000.0,910824000.0,847333000.0,749559000.0,606874000.0,457525000.0,351389000.0,247369000.0,187660000.0,151015000.0,,,,,,,,,,
URY,Uruguay,,,,,,,,,,,,,,,,,,,,,,,,,,,,,,,,,,,,,,,,,,,,,,,,,,,,,,,,,,,,,
USA,United States,,,,,,,,,,,,,,,,,,,,,,,,,,,,,,,,,,,,,,,,,,,,,,,,,,,,,,,,,,,,,
UZB,Uzbekistan,,1401315000.0,1251994000.0,610161000.0,509190000.0,421027000.0,328165000.0,272460000.0,197964000.0,149384000.0,114403000.0,83413000.0,55022000.0,42805000.0,25655000.0,11492000.0,4925000.0,213000.0,0.0,,,,,,,,,,,,,,,,,,,,,,,,,,,,,,,,,,,,,,,,,,
VCT,St. Vincent and the Grenadines,,68334000.0,30345000.0,30513000.0,28590000.0,28270000.0,28528000.0,27409000.0,22848000.0,21695000.0,21319000.0,20393000.0,19348000.0,18170000.0,16486000.0,15273000.0,13292000.0,11476000.0,10128000.0,7716000.0,6998000.0,7372000.0,7611000.0,7286000.0,7782000.0,8124000.0,7983000.0,7639000.0,7604000.0,7870226.2,6189993.7,4888675.2,3552648.0,3038769.7,2129591.2,1098420.0,0.0,,,,,,,,,,,,,,,,,,,,,,,,
VEN,"Venezuela, RB",,,,,,,,,,,,,,,,,,,,,,,,,,,,,,,,,,,,,,,,,,,,,,,,,,,,,,,,,,,,,
VGB,British Virgin Islands,,,,,,,,,,,,,,,,,,,,,,,,,,,,,,,,,,,,,,,,,,,,,,,,,,,,,,,,,,,,,
VIR,Virgin Islands (U.S.),,,,,,,,,,,,,,,,,,,,,,,,,,,,,,,,,,,,,,,,,,,,,,,,,,,,,,,,,,,,,
VNM,Vietnam,,13136778000.0,12908437000.0,12730357000.0,11462229000.0,11201173000.0,10912582000.0,10309408000.0,9088092000.0,7981481000.0,7042510000.0,6303805000.0,5109795000.0,4586742000.0,3702796000.0,3228334000.0,3081693000.0,2526012000.0,1769722000.0,1398701000.0,1168861119.0,1043665000.0,904838000.0,623016000.0,466437000.0,286298000.0,236689000.0,113429000.0,114622000.0,57909000.0,58505000.0,59101000.0,59697000.0,59697000.0,59294000.0,54057000.0,46796000.0,44425000.0,35035000.0,19360000.0,2376000.0,1200000.0,0.0,,,,,,,,,,,,,,,,,,
VUT,Vanuatu,,82984000.0,54676000.0,29107000.0,12163000.0,9107000.0,8763000.0,9904000.0,10473000.0,11049000.0,11657000.0,12432000.0,12906000.0,13367000.0,13181000.0,12889000.0,14223000.0,13888000.0,12932000.0,12233000.0,12931000.0,13825000.0,14111000.0,12996000.0,13227000.0,13205000.0,12510000.0,11440000.0,11138000.0,8563984.8,4014746.5,2925320.2,1783052.5,1454126.5,522306.4,179042.5,46069.9,0.0,,,,,,,,,,,,,,,,,,,,,,,
WLD,World,,,,,,,,,,,,,,,,,,,,,,,,,,,,,,,,,,,,,,,,,,,,,,,,,,,,,,,,,,,,,
WSM,Samoa,,110283000.0,104850000.0,103363000.0,92758000.0,96099000.0,95597000.0,103732000.0,102914000.0,99964000.0,99318000.0,79877000.0,78968000.0,77672000.0,69328000.0,64157000.0,61713000.0,57625000.0,51356000.0,47915000.0,47345000.0,44166000.0,45320000.0,41839000.0,43214000.0,44669000.0,43294000.0,40243000.0,31793000.0,25211821.0,18274178.8,14425674.5,13504808.1,12643030.7,11001711.2,10143194.2,9539588.0,9020605.9,8458567.9,7367000.0,6332000.0,4311000.0,4237000.0,3257000.0,2171000.0,1390000.0,,,,,,,,,,,,,,,
XKX,Kosovo,,67757000.0,56712000.0,49316000.0,37969000.0,31421000.0,25298000.0,17046000.0,11086000.0,6552000.0,0.0,,,,,,,,,,,,,,,,,,,,,,,,,,,,,,,,,,,,,,,,,,,,,,,,,,
YEM,"Yemen, Rep.",,1504667000.0,1585771000.0,1694835000.0,1667944000.0,1780328000.0,1910161000.0,2070388000.0,2103923000.0,2135216000.0,2180010000.0,2187438000.0,2113327000.0,2057613000.0,1894121000.0,1688840000.0,1701369000.0,1567485000.0,1383719000.0,1236647000.0,1216491000.0,1215536000.0,1074928000.0,933649000.0,893122000.0,827496000.0,779969000.0,726222000.0,683760000.0,651287179.6,602141751.9,546437406.5,509829543.9,473387583.5,406598390.4,348118424.7,294027871.9,252834161.5,199304540.8,163387183.3,137049000.0,109036000.0,88999000.0,58910000.0,37696000.0,12357000.0,4119000.0,2072000.0,707000.0,153000.0,,,,,,,,,,,
ZAF,South Africa,,,,,,,,,,,,,,,,,,,0.0,0.0,,,,,,,,,,,,,,,,,,,,,,,,,,,,,,,,,,,,,,,,,
ZMB,Zambia,,1108251000.0,1002934000.0,893814000.0,760362000.0,698021000.0,666815000.0,631928000.0,565101000.0,492048000.0,430103000.0,406921000.0,371177000.0,323237000.0,259933000.0,2488266000.0,2637410000.0,2405290000.0,2144469000.0,1868756000.0,1823436000.0,1703843000.0,1586930000.0,1492586000.0,1404660000.0,1270408000.0,1042542000.0,817426000.0,643160000.0,493163711.8,273558649.6,252793545.4,253593474.0,259569979.0,189604082.4,105014539.1,36021906.1,21024135.6,11732000.0,4261000.0,2117000.0,580000.0,0.0,,,,,,,,,,,,,,,,,,
ZWE,Zimbabwe,,457875000.0,461236000.0,472296000.0,446310000.0,461057000.0,482445000.0,513021000.0,512000000.0,511449000.0,513034000.0,522250000.0,518566000.0,522111000.0,500973000.0,477954000.0,516020000.0,493137000.0,450207000.0,417907000.0,436912000.0,452401000.0,442389000.0,398548000.0,334951000.0,335595000.0,313215000.0,199463000.0,137469000.0,67546337.6,67351569.7,62214962.7,60839097.0,58336717.9,46805748.0,30138447.9,22720287.6,16704087.3,13347631.0,14083916.0,,,,,,,,,,,,,,,,,,,,,
